0.023023,-0.027956,0.099559,0.074038,0.023035,-0.10448,0.074038,-0.002491,-0.05347,0.074057,0.023023,-0.002467,0.048561,-0.027974,0.048536,-0.002467,0.048555,0.074038,-0.13,-0.078972,0.048555,0.048531,-0.053482,-0.05347,0.12507,0.023035,-0.02798,0.048536,-0.078972,-0.027969,-0.02798,-0.078972,0.099564,0.023035,0.023023,-0.027969,-0.053464,0.099559,0.074038,-0.053482,-0.10448,0.074057,0.048531,-0.027974,0.048549,-0.002454,-0.027987,-0.07899,-0.12999,-0.053476,-0.002467,0.17607,-0.002467,0.023041,-0.078977,0.048543,-0.002461,0.023041,0.023029,-0.13,-0.027969,0.099564,0.023047,0.048536,-0.027969,-0.1555,-0.027974,0.048549,0.023047,0.023041,-0.027974,0.023041,0.048549,0.074038,-0.027974,-0.05347,-0.027974,0.099552,0.17607,0.048543,-0.078977,-0.002467,-0.053476,0.12505,0.12507,0.023035,-0.181,-0.002467,0.099552,0.074044,-0.002461,-0.05347,-0.027969,-0.078972,0.12506,0.099552,-0.053482,-0.002467,-0.15549,-0.1045,-0.002467,0.17607,0.074038,-0.10449,-0.078977,-0.002461,0.048531,-0.027987,-0.078966,0.048555,-0.027974,-0.027969,-0.078972,0.074057,0.048536,-0.027969,-0.027956,0.048549,0.023041,-0.10449,-0.053476,0.074057,0.023023,-0.07899,-0.027956,-0.027974,0.048536,0.023035,0.023047,-0.002467,0.048531,-0.027969,-0.002448,0.074038,0.023035,-0.05347,0.12505,-0.002467,-0.13,-0.027969,0.074057,0.099552,-0.07899,-0.078984,0.023059,0.048549,0.099552,0.12505,0.023041,-0.002467,-0.12999,-0.10449,-0.002467,0.074044,0.099552,0.099552,-0.13,-0.10448,0.074057,-0.027969,-0.053482,-0.053464,0.048549,0.048549,0.15056,-0.13,-0.181,-0.027969,0.048555,0.12506,0.12505,-0.12999,0.023041,0.074057,0.023029,-0.10449,-0.1555,-0.02798,0.099559,0.023041,-0.15549,-0.002454,0.023035,0.15056,0.12505,-0.13001,-0.027974,-0.078977,0.048543,-0.002479,0.048549,0.023054,0.023047,-0.13,-0.027956,-0.027974,-0.027998,-0.027974,-0.053464,0.023023,0.048549,0.023047,0.09954,-0.053482,0.048567,-0.07899,0.023035,-0.053464,-0.002461,0.023029,-0.027962,0.023041,-0.027974,-0.10448,-0.002467,-0.002485,-0.12999,-0.002454,0.023035,-0.002479,0.048549,-0.078972,0.12505,-0.002467,-0.027956,0.099559,0.023023,-0.053488,-0.10449,0.023047,0.15056,-0.053482,-0.053464,0.074057,-0.002485,-0.027974,0.048549,0.048531,-0.07899,-0.078977,0.048555,0.074038,0.074051,0.023054,0.15057,-0.07899,-0.027956,-0.02798,-0.078984,0.023054,-0.027974,-0.078984,-0.002448,-0.027969,-0.027987,-0.027962,-0.002472,-0.002485,-0.027956,-0.027974,0.048525,-0.027962,0.099564,0.023029,0.048543,-0.10449,0.023041,0.074033,-0.078984,-0.053458,0.023047,0.12505,-0.002467,-0.078972,-0.10449,-0.027974,0.099546,0.099546,-0.053476,-0.12999,0.074062,0.099559,0.023035,-0.13,0.048561,-0.02795,0.099559,0.09954,-0.002467,-0.002461,-0.1045,0.048549,0.17606,0.023041,-0.053482,-0.078972,0.023047,-0.078977,-0.002485,-0.078984,-0.05347,0.048549,0.074057,0.048536,0.048536,-0.10449,-0.1555,0.048536,0.15056,0.023041,-0.181,-0.002448,-0.027962,0.074057,0.15056,-0.053476,-0.181,-0.027969,0.12507,0.12505,-0.027974,-0.12999,-0.002467,0.15056,0.099552,-0.078996,-0.10448,0.099559,-0.027969,-0.002479,0.048543,0.023054,0.048549,-0.053495,0.048549,-0.078977,0.048536,-0.002467,-0.12999,-0.053488,0.099552,0.074044,-0.053476,-0.078984,-0.002448,-0.002467,0.074051,0.099546,0.074038,-0.078984,0.023047,0.023035,0.20157,-0.002467,-0.12999,-0.07899,-0.002479,0.17607,-0.027974,0.023041,-0.078977,0.023047,0.12506,0.023035,-0.027969,-0.10447,0.023047,0.074033,0.12506,-0.078984,-0.078984,0.074062,0.099564,0.099552,-0.002467,-0.10447,-0.12999,0.023047,0.099552,0.023047,-0.07899,-0.027974,-0.05347,0.048549,0.074057,0.048536,-0.07899,-0.002467,-0.027956,-0.002461,0.074044,-0.078984,-0.078972,-0.027969,0.074057,0.048536,-0.053482,-0.02798,-0.181,0.074051,0.023041,0.15056,-0.002461,-0.053476,0.023059,0.074051,0.023029,0.12504,-0.078966,0.099559,0.023023,0.048536,-0.078984,-0.10449,-0.002467,0.099564,-0.027974,-0.002467,-0.15549,-0.078977,-0.002467,0.15056,0.074057,-0.10449,-0.027956,0.048549,0.099552,-0.002491,0.023047,0.023054,-0.002467,0.048531,-0.002461,0.048561,0.099552,0.074044,-0.078984,0.023054,0.074057,0.023017,-0.05347,-0.002448,-0.027974,-0.002479,0.099559,-0.053464,0.023035,-0.002485,-0.002461,-0.002467,0.023023,0.074057,0.074057,-0.002479,-0.027969,-0.078977,0.074051,0.023023,-0.027969,-0.002448,0.048536,-0.053476,-0.002454,0.074057,0.12505,-0.13,-0.10449,-0.002472,0.074038,-0.053476,-0.078972,0.048549,0.023047,0.023029,-0.1555,-0.12999,-0.05347,0.048549,0.074051,-0.002461,0.023047,-0.12999,0.048549,0.12505,0.15056,-0.1045,-0.078972,0.048536,0.023047,0.023023,-0.027969,-0.027969,-0.05347,-0.002467,0.12506,0.074038,-0.07899,0.1742,0.072198,0.19971,-0.002467,-0.002454,-0.002479,0.048543,-0.05347,0.048543,-0.002467,0.074062,-0.053476,-0.002485,-0.002467,-0.027956,-0.053476,0.023023,0.023047,0.023059,-0.027969,-0.002467,0.099564,-0.10449,-0.053482,-0.053482,0.12505,-0.002467,0.12507,-0.002467,-0.002467,0.12505,-0.027974,-0.10448,-0.053482,0.074038,-0.053464,-0.053476,0.099546,0.023059,0.023029,0.074051,0.048561,-0.027974,-0.02798,0.048543,-0.053458,0.074038,-0.053482,0.074051,0.048536,0.074038,-0.10449,0.048561,-0.027974,0.12505,0.048549,-0.027974,-0.02798,-0.002454,-0.027969,0.023023,-0.078972,-0.002461,-0.027993,-0.05347,0.023041,0.023023,0.048543,-0.078972,0.048567,0.099559,-0.079002,0.074038,0.023047,-0.002454,0.023047,0.074044,-0.002479,0.023047,0.074062,-0.002467,-0.027987,-0.07899,-0.05347,0.048555,-0.002461,-0.002485,-0.002467,0.048561,-0.002461,0.074038,-0.078984,-0.053458,-0.07899,0.074044,0.099564,-0.027969,-0.07899,0.023035,-0.053476,-0.027956,0.048549,-0.027987,-0.053476,-0.002448,-0.002467,-0.053488,0.048549,-0.002448,-0.002467,0.074038,-0.078984,-0.078972,-0.027974,0.048531,-0.027974,0.023054,-0.053464,0.023035,0.048531,-0.002467,-0.027962,-0.078984,-0.078984,0.048536,0.023047,-0.002454,0.074038,-0.002467,-0.002454,0.048543,-0.027987,-0.053476,-0.002461,-0.053482,0.048531,-0.027974,0.048561,-0.002467,0.023029,0.048549,-0.05347,-0.1045,0.023029,0.12507,-0.002461,-0.078984,0.074038,0.048555,0.023035,0.074038,-0.053476,-0.053464,0.023041,0.099546,0.023035,0.074051,-0.05347,-0.053476,-0.002485,-0.078984,0.048561,-0.002472,0.048536,-0.027987,0.048543,-0.002448,0.048549,0.023023,0.023035,0.09957,-0.002467,-0.079002,0.023029,-0.002448,-0.002467,0.099546,-0.053482,0.048549,0.023047,-0.053476,-0.02798,-0.053476,-0.002454,0.048531,0.099546,0.023059,0.074044,-0.002461,-0.053464,0.023029,-0.078984,-0.10447,-0.002467,-0.027993,0.048543,0.099564,0.074038,-0.002461,-0.002454,-0.053482,0.074038,-0.053495,-0.053476,0.048561,0.023041,0.048536,-0.027969,0.048543,0.048561,0.074051,-0.053495,-0.027969,0.048536,-0.002448,-0.002467,-0.1045,0.15056,0.099564,0.099564,-0.10448,0.048549,-0.053495,-0.053488,-0.027969,0.023054,0.023054,-0.002461,0.048536,-0.07899,0.15057,-0.027956,-0.002467,-0.027993,0.074038,0.074062,-0.078977,-0.027974,0.023029,0.048555,-0.078972,-0.053482,0.023035,0.023047,-0.027993,0.023041,-0.027956,0.074038,-0.002461,0.023054,0.09954,0.074044,-0.027969,-0.13,-0.002467,0.048567,-0.1045,0.099546,0.074062,-0.07899,0.048536,0.048555,-0.027974,-0.002485,0.074057,-0.078972,-0.027987,0.048549,0.048549,-0.10449,0.20157,0.023047,-0.053476,0.074038,-0.002467,-0.002454,-0.027974,0.048525,0.023035,0.048561,-0.10449,0.12505,0.023035,0.023047,-0.05347,-0.10449,-0.07899,-0.10448,-0.28302,0.12511,0.48213,0.60967,-0.33409,-0.71668,-0.053451,-0.4616,-0.00251,0.3036,0.94128,1.4514,0.43112,-0.94617,-1.5583,-1.7624,-1.0226,1.6044,2.9307,-0.33401,-1.2269,0.66065,-0.027791,-0.41026,1.9871,-2.1194,-3.5479,-0.23237,3.1347,3.5175,-1.4057,-3.2673,-0.53803,1.5791,2.8036,-0.43586,-0.74209,0.6096,-1.3545,0.3036,-1.482,1.4258,3.6707,0.15047,-1.0736,-2.6548,-1.6092,-0.92059,-1.4822,-3.0383,-0.99753,4.6906,6.8078,2.8032,1.12,-0.81856,-2.6805,2.1915,-0.002345,-3.8537,-2.4257,-1.4563,-0.25741,-2.6043,1.7063,2.4463,3.0835,0.17572,-0.5633,3.9766,-2.0684,-3.344,-3.7775,-0.7167,0.66064,0.55885,0.35467,1.0177,2.6757,3.033,0.63536,-1.0737,1.4004,-1.7881,-2.0941,-1.9921,-0.48717,0.58414,0.22703,-0.69118,1.6302,1.3748,0.5329,-0.86968,-1.456,-0.51257,-1.5837,0.88996,0.58406,-0.18081,-2.5524,1.7574,0.71152,0.099381,-0.25771,4.9714,-0.51276,0.6352,-1.4053,-0.86966,-2.1451,-2.0686,-0.66569,0.25262,0.73713,0.048659,0.89027,1.1708,-0.053335,-0.078917,1.0177,1.1709,-0.027858,-0.35959,-0.48711,-0.84425,-0.30857,0.76264,0.63509,-0.84411,-0.71652,-1.0736,-0.07907,1.5532,1.987,0.17607,-0.48703,-1.3287,0.76273,2.2932,-0.64015,-1.5329,-0.86969,0.22696,-2.0938,0.27802,0.71175,0.94137,0.40563,0.50759,-0.35956,-0.76772,1.0688,0.83928,0.32914,-0.18109,-0.97163,-0.43617,-0.61467,-1.3541,1.2217,0.63512,-0.38494,0.38007,0.48208,-0.41049,-0.61442,0.27806,0.45655,0.38005,-0.28303,-1.4051,-0.028029,-0.1298,-0.002472,-0.28312,1.2219,0.6862,-0.002503,0.58422,-0.28304,-1.839,-1.5839,0.53323,0.38013,0.58421,0.68621,0.22707,-0.51257,0.50766,0.40561,-0.05347,0.12512,0.55872,-0.58919,-0.30859,-0.078984,0.15054,-0.25759,-0.84402,-0.56366,-0.25752,0.78825,1.9361,-0.053598,-0.99723,-1.4308,-0.053427,1.9616,1.9106,0.78828,-1.482,-1.0738,-0.92073,-1.1757,-1.0481,0.76275,1.2728,1.4769,-0.181,0.329,0.91561,-0.18083,-1.1502,-0.61464,0.5077,-0.053482,0.023023,-0.64015,0.12509,-0.28305,-0.13004,-0.13002,-0.002418,3.2116,2.7013,-2.0941,-2.5022,-0.99729,-0.41067,-0.18106,-0.12999,0.48217,0.17614,0.63521,-0.027938,0.074075,0.48219,0.99237,-0.46161,-0.61467,0.25262,0.22719,-0.79327,-0.79321,1.3749,0.48219,-1.3288,-0.35966,-0.18105,-0.15556,-0.02798,0.2016,-0.30851,-0.25755,0.60973,1.1454,-0.079026,0.58423,-0.23202,0.48221,-0.43617,-0.25757,-0.58907,-0.6656,-0.079008,0.38009,0.12505,-0.002479,0.83925,0.099595,-0.33401,0.048555,-0.46163,-0.028042,-0.18103,-0.33402,0.20151,0.81373,1.2984,0.15066,-1.8642,-0.53815,0.22707,0.32905,-0.5637,-0.69121,-0.41059,0.50765,1.0433,0.40576,-0.10448,0.45656,0.12501,-0.078972,-0.7931,-0.92068,-0.41054,1.7576,0.66076,-0.48711,-0.7167,-0.48717,-0.15557,0.27807,-0.23201,0.12503,0.17604,0.0741,0.55874,0.30367,-0.33406,-0.15553,-0.1045,-0.1555,-0.35955,0.48219,0.55867,0.35459,-0.20652,-0.25751,0.20158,-0.41058,-0.58913,-0.35959,0.48216,0.63518,-0.56362,-0.25751,0.76279,-0.12999,-0.41063,0.17603,0.27811,-0.2575,-0.4106,-0.53811,1.1454,1.3495,1.5279,-0.79324,-0.79324,-1.2778,-0.41058,-0.41058,-0.28305,-0.23207,0.22708,0.22708,0.30362,0.58423,0.22715,0.048573,0.15054,-0.027993,-0.12997,-0.078941,0.12501,-0.81871,-0.33402,0.048561,1.0943,-0.13002,-0.027956,0.48214,-0.48713,0.15056,-0.66562,-0.71661,-0.18106,-0.6146,0.20157,0.73723,-0.027969,-0.027962,0.099588,1.2729,0.43115,-0.25753,-0.61462,1.477,-0.69114,-1.4054,-0.66569,-0.33398,0.68617,0.48213,-0.25756,0.074093,0.45665,0.27811,-0.48713,0.023054,-0.28303,-0.28302,0.45666,0.58419,0.22707,-0.41057,0.074038,0.35462,-0.079002,-0.46161,-0.33403,0.35467,0.30363,-0.51262,-0.74221,0.58422,0.48218,-0.027987,-0.2575,-0.25759,-0.97177,0.12507,1.2219,0.7628,-0.053519,-0.15554,-0.30856,-0.30853,-0.12999,-0.10445,0.023041,-0.48712,0.15054,1.2218,1.4515,-1.1758,-1.0227,-0.66564,-0.35956,0.48216,0.30362,0.023054,0.099559,-1.0483,0.3801,0.81377,0.17609,0.12508,-0.20651,-0.25754,-0.13003,-0.20651,-0.078984,-0.027962,0.60971,0.22708,-0.1045,-0.81862,-0.10456,0.27805,0.78824,0.8648,-0.6146,-0.33401,-0.46157,-0.74218,-0.10452,0.94128,0.43113,-0.13,-0.33405,-0.25756,0.45666,-0.12998,0.20159,0.27813,-0.002467,-0.18106,-0.10449,-0.053446,0.4312,-0.078966,0.27809,-0.13006,-0.56368,0.048555,0.074106,0.38017,-0.2065,-0.35959,0.048494,-0.13,0.15062,0.048512,-0.002503,0.074062,0.3291,0.55872,0.2271,0.89029,-0.41057,-0.9207,-0.64014,-0.25755,-0.13001,-0.12999,-0.05347,0.30368,-0.25753,-0.002467,0.45668,0.83926,-0.30858,-0.51263,-0.053488,0.22705,-0.10446,0.20164,-0.28305,-0.027969,-0.20652,-0.15552,-0.0535,0.22712,0.71176,-0.5126,-0.28305,0.32913,-0.20647,-0.23207,-0.002479,-0.027962,0.43117,0.09954,0.023017,0.17609,-0.33406,0.12506,-0.43607,-0.027931,-0.078972,-0.13001,-0.23208,-0.71669,0.15059,0.35464,0.45667,0.50771,-0.027969,-0.1045,-0.20652,0.15053,-0.027993,0.074062,-0.23202,0.30363,0.048536,-0.027993,-0.15551,-0.002467,-0.43608,0.15062,0.35468,0.68621,0.43112,-0.46164,-0.58916,-0.51265,-0.1045,0.074106,0.43117,0.35462,-0.10452,-0.002443,-0.30858,0.55871,-0.053464,-0.18098,0.25265,-0.43611,-0.38511,-0.027993,0.40562,0.30357,0.3291,-0.41057,0.20163,0.71179,0.023072,0.17608,-0.79321,-0.28307,0.048536,-0.002467,0.023059,-0.078972,-0.02795,0.30363,-0.002423,-0.053495,-0.23206,0.17606,0.25257,0.38012,-0.053495,-0.46159,0.099608,0.12507,0.55871,-0.078984,-0.181,-0.28305,-0.20653,-0.4616,-0.13001,0.38013,0.71173,0.83927,-0.20652,-0.89526,-0.15549,0.074069,0.15057,-0.35955,0.023072,0.20159,0.02301,0.25259,-0.15551,-0.46156,-0.027956,0.048536,0.71173,-0.027956,-0.53812,-0.23202,0.20159,0.53317,-0.46161,-0.33405,0.099583,0.12508,0.1761,-0.58916,0.15056,0.27811,0.023029,0.12508,0.17607,0.48219,0.15054,-0.38508,-0.28306,-0.41059,-0.28306,0.074062,0.48221,0.023072,-0.079008,-0.38514,0.45665,-0.43609,-0.15553,-0.027944,0.63523,0.099552,0.17609,-0.30853,-0.053451,-0.20652,-0.25752,0.25258,0.25259,-0.053482,0.15056,0.12504,0.074062,-0.20652,-0.1555,-0.181,-0.15553,-0.20653,0.35465,0.35465,0.048536,0.15057,-0.002491,0.048543,0.074044,-0.5126,0.074069,0.074062,-0.43614,-0.078984,0.22711,0.7373,-0.027974,-0.97175,0.048561,0.30361,0.15056,-0.10452,0.023023,-0.053476,0.048536,-0.23205,-0.15549,0.68628,0.45669,-0.1045,-0.41059,-0.41063,0.074033,-0.12999,0.2526,-0.15551,0.099577,0.023041,0.15056,0.048567,0.27811,-0.18099,-0.002485,-0.07899,-0.18101,-0.20652,0.43113,0.12509,-0.38506,0.22708,-0.13003,0.074051,0.048549,0.66074,0.099577,-0.53812,0.023047,-0.30856,0.074081,-0.028011,0.22708,-0.28307,-0.027993,-0.002461,-0.002461,0.2526,0.15057,-0.43609,0.48218,0.71175,0.43115,-0.25754,0.40568,-0.28306,-0.69117,-0.4361,-0.20652,0.55869,0.50765,-0.053495,-0.23202,-0.38507,-0.20653,0.15057,0.50767,0.048567,-0.053458,-0.13002,0.099583,-0.027969,-0.002491,0.023041,-0.4871,-0.15549,0.12508,0.20156,0.17608,-0.4871,0.074057,1.3494,0.17608,-0.25751,-0.053488,-0.79321,-0.71671,-0.078996,0.048549,0.09957,0.30362,0.20158,0.15057,0.32915,0.40569,0.40565,-0.15554,-0.53811,-0.58913,-0.13,0.17611,0.96681,0.55872,-1.0228,-0.3341,0.17609,0.38016,-0.053513,-0.28306,-0.18101,0.074057,0.50771,0.66075,-0.51262,-0.25756,-0.002491,-0.25751,-0.15551,0.099559,0.22714,-0.18102,0.50764,0.15059,0.60974,-0.4616,-0.53813,-0.41058,-0.20653,0.30364,-0.15552,-0.002479,0.12505,0.074038,-0.10449,0.048592,0.048549,-0.10448,0.099564,0.048531,0.32909,0.12505,0.22712,0.17609,-0.30856,-0.99727,-0.23203,0.38017,0.48218,0.40566,-0.18103,-0.10452,-0.51257,-0.13002,-0.18101,-0.20649,0.53317,0.3801,0.074026,0.048555,-0.002461,-0.079008,-0.15551,0.099577,0.048531,-0.13,-0.02798,-0.12998,-0.027962,-0.053476,0.38013,-0.002479,-0.30854,0.048573,-0.18102,-0.13003,0.099534,0.15057,0.099534,-0.30855,-0.35953,0.15059,-0.05347,0.25261,-0.078972,0.20159,0.20157,0.25262,-0.181,-0.25752,-0.23205,0.38013,0.20159,-0.30855,-0.13002,0.02301,-0.23204,-0.41058,-0.002423,0.40566,0.25261,-0.15554,0.22706,0.048555,-0.079002,-0.18103,-0.13002,0.38016,-0.51257,-0.28301,0.35465,0.20158,0.15056,0.32912,-0.002485,0.023035,-0.078996,-0.10452,-0.10449,-0.3085,-0.385,0.02301,0.35458,0.17606,0.22709,-0.18101,0.048549,0.6607,-0.1045,-0.027962,-0.30851,-0.28303,-0.46159,-0.30855,0.25259,0.55867,0.53316,-0.07899,-0.28305,-0.33402,-0.027998,0.45664,0.023023,-0.4361,0.48218,0.66075,-0.002485,-0.43609,-0.30854,-0.28303,-0.053446,-0.20649,0.38011,0.20156,0.50768,-0.10452,-0.10453,0.12504,-0.28303,-0.51262,0.17611,0.32914,0.1506,-0.35951,0.22715,0.15064,-0.43609,-0.3341,0.022998,-0.18103,0.9668,-0.079008,0.38018,-0.30856,-0.20655,-0.053488,-0.002448,-0.23203,-0.13,-0.027938,0.32915,0.22712,0.09957,-0.20656,-0.053531,0.074044,-0.053513,-0.79315,-0.71666,0.1251,0.81376,1.0178,-0.18105,-0.053476,-0.053421,-0.053464,-0.43609,0.12503,0.20156,0.48216,-0.10452,0.09954,-0.6401,-0.18095,-0.18097,0.3291,0.15057,0.023029,0.12505,-0.13002,-0.41056,0.32913,-0.053439,-0.13001,-0.23207,-0.30862,0.048536,0.023072,0.94133,0.2526,0.45669,-0.053476,-0.69119,-0.078972,-0.8697,-0.66565,-0.10451,0.45666,0.30361,0.63523,0.2016,-0.43607,-0.002461,0.35463,-0.002467,-0.46162,-0.20652,-0.078972,0.074081,0.2526,-0.33406,-0.41058,0.22712,0.83928,0.66073,-0.58913,-0.61467,-0.56364,-0.078972,0.074008,0.27813,-0.053482,0.048549,0.074051,-0.20649,0.023035,-0.18097,0.43117,0.32913,0.25257,-0.28305,-0.51262,-0.56363,0.32912,0.27811,0.5332,-0.1045,-0.25748,-0.20647,-0.25753,0.4566,0.20154,-0.00251,0.048536,-0.51262,-0.48707,-0.18097,0.4567,0.6607,-0.053488,-0.002485,-0.18103,-0.1045,-0.15551,0.1251,0.20161,0.099546,-0.15551,-0.41058,-0.078972,0.15057,0.20161,-0.43607,0.17604,0.15056,-0.002491,0.22711,0.30365,-0.18103,-0.30856,0.32916,-0.15549,-0.25752,-0.027962,0.2526,0.25258,-0.64015,0.20159,-0.05347,0.71176,0.2271,-0.7932,-0.25756,-0.12999,-0.38505,-0.053439,-0.35952,0.22712,1.1198,0.35459,-0.0535,-0.13002,-0.1045,-0.64016,-0.053482,-0.23203,-0.002479,0.32915,0.40568,-0.079002,-0.23202,0.15059,0.099588,-0.053513,-0.20656,-0.23206,0.17612,0.58424,-0.46155,0.022998,0.12502,0.50765,0.15059,-0.99723,-0.33403,-0.078984,-0.30856,0.099552,0.40565,0.55869,0.09957,-0.15548,-0.38505,0.074057,0.099559,-0.25757,0.023023,0.35462,0.76274,-0.35956,-0.15551,-0.10447,-0.078959,-0.56361,-0.53811,-0.02798,0.12501,0.35462,0.55872,0.63527,-0.12997,-0.76772,-0.92075,0.27814,0.55872,0.4567,0.20156,-0.028036,-0.15555,0.43114,-0.46161,-0.181,0.25262,-0.41057,-0.078947,-0.027944,0.32915,0.5332,0.09954,-0.41061,-0.58916,0.30359,0.074057,-0.053458,0.023041,0.94127,0.20162,-0.12998,-0.41057,-0.41055,-0.15548,-0.23205,-0.079039,0.22706,0.68621,-0.58914,-0.25752,0.22713,0.73723,0.2781,0.074051,-0.41056,-0.20653,-0.23203,0.048531,-0.027962,0.20159,0.50772,-0.51261,-0.25756,-0.23205,0.40561,0.40563,-0.43606,-0.20651,0.048512,0.35462,-0.35957,-0.053458,0.35465,0.17609,0.35465,0.48222,0.58421,-0.64018,-0.51265,-0.4106,-0.25753,-0.053451,-0.18101,-0.027962,0.40563,0.76274,-0.079002,-0.02798,-0.10449,-0.28304,-0.46156,-0.027987,-0.053476,-0.33409,0.43117,-0.48713,0.66075,0.68624,0.71175,-0.79317,-0.71666,-0.002472,0.30365,0.5332,-0.41059,-0.92076,-0.35957,0.17607,0.99232,0.68622,-0.51263,-0.53816,-0.35956,-0.18097,-0.10447,0.048555,0.12507,-0.30855,0.45666,0.78826,0.55869,-0.002467,-1.2013,-0.53815,0.074013,0.91578,1.4515,-0.28306,-0.66567,-1.0993,-0.84412,-0.38505,0.22707,0.25259,0.83926,0.17611,0.38017,-0.15551,-0.30858,0.073984,0.12505,0.099595,-0.053415,-0.48705,-0.10451,0.35461,0.60969,0.099528,-0.92073,0.43118,-0.1045,-0.43607,0.099564,0.58422,-0.25754,-0.9973,0.22713,0.20161,-0.181,-0.5126,0.20155,0.76274,0.68624,0.15057,-0.3851,-0.23203,-0.18103,-0.1045,0.023084,0.48218,0.27811,-0.10447,-0.30854,-0.71665,0.023059,0.17605,0.43114,0.50768,-0.53812,-0.10447,-0.053433,0.15057,-0.30854,-0.1045,0.023047,0.023023,0.32914,-0.053495,-0.25756,0.22708,-0.05347,0.30363,0.074038,-0.38509,-0.053446,0.60974,-0.002467,-0.7677,-0.25758,0.9923,0.55869,-0.28303,-0.46157,-0.41059,-0.027998,0.35463,-0.05347,-0.33407,-0.053476,0.30363,0.048555,0.27812,0.2271,0.15054,-0.25756,0.15056,-0.002443,-0.23201,-0.53812,0.38013,0.48211,-0.10452,-0.28303,-0.18093,-0.15546,-0.23203,0.40559,-0.23207,0.048531,0.66074,-0.10448,-0.58915,-0.18097,0.17609,-0.25753,-0.13001,0.73726,0.40564,-0.18108,-0.23206,-0.12997,-0.33405,-0.33402,-0.078972,0.074057,0.15057,0.023029,-0.1045,0.023047,0.40563,-0.079008,-0.027938,0.2271,-0.58913,-0.4616,0.12509,0.58421,0.17611,-0.30858,-0.35957,0.099595,0.2526,0.27812,-0.46164,-0.28304,-0.18099,0.60969,0.27808,0.023023,-0.18101,-0.51258,-0.027969,0.1506,0.50764,-0.027998,-0.232,-0.2575,-0.15549,0.35464,0.60969,-0.027987,-0.078972,-0.002472,-0.7167,-0.20656,-0.15551,0.76281,0.023103,-0.43602,0.27805,-0.18108,-0.35958,-0.18101,0.27813,0.25258,0.32912,0.32913,0.023041,0.074051,0.09954,-0.20653,-1.2013,-0.28303,0.91586,2.4718,-1.0738,-1.0483,-0.66571,-0.38514,0.30357,-0.58916,-0.12999,0.35468,0.66074,0.55867,0.02301,-0.12998,-0.20647,-0.33406,-0.02798,0.20159,0.38014,-0.10452,-0.25756,-0.41062,-0.25751,0.048573,0.35467,0.63517,0.55872,-0.41057,-0.89521,-0.81868,0.25258,0.22712,-0.10454,-0.20655,0.58422,0.023059,0.40565,0.6352,0.12505,0.048531,0.048561,-0.41058,-0.4616,-0.38508,0.099583,0.20164,0.4567,0.25258,-0.30859,-0.002497,-0.69114,-0.43606,-0.002472,0.048536,-0.10453,-0.053482,0.45666,1.2984,0.099564,-1.6094,-0.078947,0.86483,0.66074,0.40565,-0.33407,-0.43612,-0.23206,-0.28306,-0.46155,0.048561,0.22705,-0.18101,0.38014,0.17611,0.45672,-0.4106,-0.35959,-0.053464,0.09954,0.17608,-0.13002,0.023047,-0.13002,0.38014,0.43116,0.60973,-0.079008,-0.81868,-0.41056,0.35464,-0.28301,-0.23205,-0.053513,-0.053525,0.2526,0.12507,0.1761,0.22712,-0.38504,-0.48712,-0.33409,0.68625,0.25259,0.60973,-0.12999,-0.33405,-0.43612,-0.079026,-0.23204,-0.25753,0.12507,0.023054,-0.053488,0.63523,0.2271,-0.20655,-0.15549,-0.078984,0.30361,0.048536,-0.10446,-0.002503,-0.20654,-0.35954,-0.079002,0.12504,0.40568,0.63521,-0.38506,-0.027962,0.15057,0.023041,-0.8442,-0.48706,0.40565,0.20155,0.45666,1.0178,0.15058,-1.4564,-0.58914,0.25263,0.40563,-0.15551,-0.053506,0.15058,0.55869,0.68627,0.30366,-0.61465,-0.28309,-0.4871,-0.23203,-0.079008,0.15057,0.048543,0.09957,0.074033,0.023047,0.43117,0.66076,0.12509,-0.69118,-0.23201,-0.25755,-0.079002,-0.23199,0.30368,0.15057,-0.30851,-0.33413,0.15047,0.8647,0.40567,-0.66555,-0.48698,-0.58897,0.5076,-0.35963,-0.20655,-0.38513,0.20157,0.83928,0.02301,0.023047,-0.41056,-0.12996,0.1761,0.9413,0.81378,-0.33406,-0.61463,-0.28304,-0.10449,-0.13,0.023005,0.22712,-0.027993,-0.28305,0.023041,-0.15553,0.6352,0.38014,0.17609,-0.51257,-0.25756,-0.027944,-0.53812,-0.15553,-0.079002,0.38016,0.58419,0.83928,-0.18103,-0.61464,-0.43609,0.023065,-0.28304,0.074062,0.12507,-0.02795,-0.15552,-0.027969,0.2526,0.12508,0.32912,0.048525,0.3291,-0.33408,-0.61465,-0.027969,0.66073,-0.027962,0.099588,-0.4106,0.074038,-0.38508,-0.35952,-0.18097,0.074033,0.2526,0.40561,0.63517,0.48216,-0.30856,-0.027944,-0.20655,0.099564,-0.35951,0.12505,-0.027993,-0.10449,-0.079014,-0.15551,-0.027956
-0.02798,-0.002472,0.099559,-0.027969,-0.05347,-0.002454,0.074038,-0.002461,-0.078972,0.074057,0.023023,0.023035,-0.002454,0.048536,-0.1045,-0.027962,0.023029,-0.002485,-0.027956,-0.027969,0.074057,-0.10448,-0.078966,0.12505,0.048531,-0.07899,-0.002467,0.048543,0.074051,0.074051,-0.078966,-0.10449,-0.053488,-0.002467,-0.002454,-0.078972,-0.10449,-0.07899,0.048536,0.048555,-0.053476,-0.053482,-0.02798,0.09954,0.15055,0.048555,0.074051,0.023035,0.048543,-0.027987,-0.02798,-0.078977,-0.078959,-0.027969,-0.002479,0.023041,0.048536,-0.027969,-0.053458,0.023047,-0.027969,0.09954,-0.027987,-0.027993,0.048536,-0.002454,-0.078972,0.023035,-0.1045,0.12505,0.09954,-0.002454,-0.05347,0.099564,0.074044,-0.002479,-0.12999,-0.027969,0.048555,-0.002467,0.023041,0.023029,0.023035,0.17607,0.099564,-0.05347,-0.002461,-0.002472,-0.002479,-0.002454,0.074062,-0.05347,-0.078984,-0.002479,0.023023,-0.002479,0.048549,0.074057,-0.027956,0.074062,0.023029,0.048543,-0.10449,-0.002472,-0.002467,0.048549,-0.05347,0.023047,0.048549,0.09954,0.048531,-0.07899,-0.13,0.048549,-0.002448,0.048549,-0.053476,-0.053488,-0.053476,-0.002467,-0.078977,0.048549,-0.002467,0.074038,-0.053476,-0.002467,-0.002448,0.048561,0.048549,-0.1045,0.074038,-0.002461,-0.181,-0.002467,0.074057,-0.10447,-0.002479,0.048549,0.17606,0.15057,-0.027969,0.023035,0.023023,0.023041,0.023054,-0.027969,0.023035,-0.12999,-0.002454,0.023059,0.023054,-0.002479,-0.07899,0.12504,0.048536,0.023047,-0.05347,-0.12999,-0.053482,0.099546,-0.002467,-0.002454,-0.078972,-0.1045,-0.002479,0.023029,0.023047,-0.027969,-0.002454,0.099559,0.099564,0.048531,0.048531,0.023023,-0.02798,-0.002467,-0.053458,-0.053464,0.048549,0.048531,-0.027993,0.048549,-0.027962,0.023041,-0.002467,0.048531,0.023023,-0.002461,-0.078977,-0.027956,-0.078984,-0.027974,-0.027987,0.048536,0.099546,0.048549,-0.05347,-0.027969,-0.027969,0.17607,-0.002467,-0.027962,-0.07899,0.12506,0.023035,-0.12999,-0.078972,0.099564,-0.027969,-0.1555,-0.002467,0.099546,-0.13,-0.05347,0.048555,-0.002472,-0.027962,0.048555,0.074051,-0.10449,-0.05347,0.12506,-0.053482,-0.15549,-0.078984,0.12505,0.074051,-0.12998,-0.027974,0.074033,0.048555,-0.027969,-0.15549,-0.027974,0.099559,0.023035,-0.1555,0.023041,0.099546,-0.10449,-0.05347,0.074057,0.048536,-0.027974,0.023035,0.12505,0.023041,-0.078972,-0.053476,0.099552,0.023047,-0.10448,-0.10449,0.048531,0.12505,0.023041,-0.12999,-0.002461,0.15056,-0.053476,-0.10448,-0.02798,0.12506,0.023035,-0.05347,0.074057,0.048536,-0.078984,-0.053464,0.048549,0.074038,-0.02798,-0.027962,0.023023,0.023035,-0.027956,0.048536,-0.027974,-0.05347,-0.027969,0.048531,-0.078977,0.048543,-0.002472,-0.12999,-0.002467,0.074051,-0.078977,-0.181,0.074044,0.048536,-0.078996,-0.078972,0.15057,-0.053476,-0.078977,0.048555,0.074044,-0.07899,-0.10447,0.099546,0.023041,-0.15549,0.023035,0.099552,-0.027969,-0.10449,-0.027987,0.048555,0.20158,-0.002461,-0.027969,0.099552,0.023035,-0.18101,-0.027969,0.20157,-0.002467,-0.10449,-0.078977,-0.027974,0.20156,-0.12999,0.023035,0.12505,-0.027969,-0.15549,0.074057,0.099552,0.023023,-0.002467,-0.10449,0.099552,0.023035,-0.078972,-0.07899,0.12505,0.099552,0.023047,-0.002454,-0.002472,0.074051,0.12505,0.074038,0.023054,-0.07899,-0.002472,0.048536,-0.12998,-0.12999,-0.12999,0.074026,0.22706,0.023029,-0.12999,0.048549,0.048536,0.048561,-0.078959,-0.027969,-0.027987,-0.027969,0.023047,-0.027969,-0.027969,-0.027993,0.099564,0.023041,-0.053464,-0.13001,0.048543,0.099546,-0.027969,-0.12999,0.048549,0.12505,0.048543,-0.15549,-0.078984,0.074044,0.099552,-0.078972,-0.078984,0.074038,0.099564,-0.053476,-0.078984,0.048543,0.099546,0.048531,0.099564,-0.181,-0.1045,-0.002467,0.023059,0.023029,-0.053476,-0.027956,0.023029,0.048543,0.023054,0.048549,0.12505,0.074057,-0.002467,0.074038,0.074057,-0.002461,0.074044,0.023047,0.023041,-0.027993,-0.027969,0.048543,0.023035,-0.13,-0.027969,0.20157,0.048543,-0.078972,0.048536,0.12506,-0.13,0.023035,0.12505,-0.002467,-0.12999,0.099564,0.074051,-0.13,-0.027969,-0.002461,-0.10449,-0.078972,-0.027974,0.12505,-0.027969,-0.027969,-0.027969,0.099552,-0.053476,-0.027974,-0.002461,0.074044,0.023041,-0.078977,-0.027974,0.074038,0.048555,-0.002454,-0.002467,-0.079008,-0.02798,0.074057,-0.027969,0.074044,-0.002454,0.023054,0.048531,0.074051,0.023035,0.12505,-0.078984,-0.12998,0.099564,0.15056,-0.1555,-0.002472,0.15057,0.023047,-0.027962,-0.027974,-0.002485,0.074038,0.074062,-0.002454,-0.078977,-0.027969,0.074044,0.048536,0.023047,0.023059,-0.10449,0.048531,-0.027974,0.12507,-0.05347,-0.13,0.099559,0.12505,-0.02798,-0.053476,-0.05347,0.074038,0.1742,0.072198,0.1232,0.1232,0.0977,0.19971,0.023035,-0.027956,0.023041,-0.053476,0.023035,-0.002454,-0.1045,0.048536,-0.002461,-0.05347,0.023035,-0.027969,0.023054,0.023035,0.048525,0.099559,-0.002461,-0.027987,-0.13001,0.023054,0.099564,0.099546,-0.027969,-0.05347,0.023047,-0.002479,0.12505,0.048555,-0.002467,-0.10449,-0.027956,-0.027974,-0.07899,0.048549,-0.002467,-0.078984,0.12505,-0.002461,-0.078972,-0.07899,-0.027987,-0.002472,0.12507,0.023054,-0.002485,-0.002467,0.048561,-0.002461,-0.027993,-0.002467,-0.002454,-0.002467,-0.002479,-0.002461,-0.027956,0.023035,0.074038,-0.079002,-0.002467,0.023054,0.023035,-0.002485,0.023047,-0.002448,-0.053482,0.048531,-0.002467,0.023054,-0.02795,-0.027974,0.09954,-0.027987,0.048536,0.048549,0.074069,0.048561,-0.05347,-0.15551,-0.053495,-0.027969,-0.002467,0.023059,-0.002467,-0.027974,0.023023,-0.002472,0.048549,-0.002454,-0.10447,-0.078984,-0.053495,-0.027974,-0.05347,0.048561,-0.002472,0.048531,-0.1045,-0.053464,-0.053464,-0.002461,-0.027993,0.15056,0.048549,0.023059,-0.027969,0.023023,0.09954,0.099559,-0.10449,-0.078984,-0.053482,0.048543,0.023054,-0.10447,-0.02798,0.09954,0.099559,-0.027956,0.023035,-0.07899,-0.02798,-0.002485,-0.1045,0.048536,0.048549,-0.053458,0.048555,-0.002467,0.023035,-0.027987,-0.027993,0.048543,-0.027969,-0.05347,0.048561,-0.053464,-0.10448,-0.13,-0.07899,0.023029,0.023035,0.074062,0.023054,0.023047,-0.002472,0.023023,-0.002467,-0.053464,-0.002448,-0.002467,-0.053495,0.023035,-0.078966,0.023054,-0.002467,-0.002485,-0.002461,-0.05347,0.023035,-0.002485,0.074051,-0.05347,-0.053482,0.074038,0.074057,-0.027956,-0.078977,0.023023,0.074044,0.048555,-0.027974,0.074044,0.048555,-0.027962,-0.07899,0.023041,-0.053458,-0.027974,0.023017,0.023023,0.074057,0.023041,-0.002467,-0.23203,0.023023,0.099564,0.30363,0.71177,0.12508,-0.46161,-0.20656,-0.3341,0.20155,0.15056,-0.25759,-0.053482,0.4822,0.20159,-0.25753,-0.078947,-0.12996,-0.15549,-0.56364,0.099534,0.6097,1.2729,0.99234,0.12507,-0.43607,-1.2268,-1.1758,-1.0228,-0.10444,1.5025,0.27806,0.43113,0.073989,-1.2524,-0.33396,-0.43582,2.0636,0.329,0.074033,-0.38499,-0.12994,-1.8136,-1.1759,0.50762,0.94133,0.73724,-0.46162,-0.81862,-0.35943,2.4716,3.4918,-2.1448,-1.4308,-1.6094,0.15059,-0.30854,0.86482,2.0381,0.99218,-1.1759,-3.3179,0.30343,-0.41076,-0.84414,0.60976,1.7831,1.6555,-0.25768,-0.3851,-0.10455,1.6044,0.99238,0.89033,-0.33401,-3.3694,-2.6042,-0.8187,-0.61464,-0.10448,-0.64012,1.375,2.0637,4.8184,1.1963,-0.53821,-1.4816,-0.92078,-1.4054,-0.2322,0.27794,0.60954,-0.30851,0.86478,-0.46151,-0.487,-0.56359,0.1506,0.17608,-0.35959,-0.283,-0.07907,-0.1809,0.94129,0.8903,-0.053446,-0.15568,-0.13009,0.99215,-0.1809,-1.1756,-0.48708,0.12501,-0.053506,-0.20649,-0.15539,0.074142,-0.078959,0.099588,-0.41062,-0.30853,0.30359,1.2473,-0.2321,0.15056,0.32917,-0.64012,-1.0992,0.15046,-0.00251,0.074081,0.074093,0.66077,0.023072,-0.38505,0.27809,0.96679,-0.028011,-1.1502,-1.0227,0.6861,0.86469,0.17605,-0.181,-1.1501,0.53314,0.63518,0.176,-0.56364,0.40569,-0.30848,-0.69111,0.1251,0.3291,0.17596,-0.078972,0.71163,-2.1955,1.1196,0.30344,0.023047,0.25263,-0.79317,-0.10444,0.96684,0.91581,-1.2524,-0.51267,0.048487,-0.89509,0.17613,0.45656,-0.58919,-0.18103,0.2271,0.60968,0.20161,0.8393,0.38022,0.25266,-0.79315,-0.20653,-0.079014,-0.20658,0.12507,0.27809,-0.053519,1.1454,-0.38506,-1.5074,-0.6912,-0.84411,-0.30853,0.50768,0.6607,0.20156,0.43115,0.1506,0.40567,0.50766,-0.002467,0.15054,0.45673,-0.30844,-0.5891,-0.38513,-0.5892,-0.43607,0.89027,1.6299,0.48208,-0.7167,-0.94621,-0.56359,-0.48704,0.15062,-0.76761,0.32912,0.58418,1.2474,-0.48714,0.15057,0.45669,0.048512,-0.28306,-0.97174,-0.74214,1.1453,0.71171,0.048555,-0.30856,-0.079014,-0.25753,-0.33401,-0.28298,-0.23201,-0.00243,-0.25752,0.12504,0.12501,0.38012,0.89027,1.2219,-0.41058,-1.3034,-0.4616,0.099595,-0.18099,-0.35954,-0.38505,0.048555,0.81376,0.074093,-0.28304,-0.00251,-0.18108,0.12504,-0.20648,0.074026,0.86475,-0.002454,-0.46153,-0.35957,-0.33404,0.68627,0.35464,-0.15551,-0.79326,0.27811,0.94124,1.9106,-0.33405,-1.6094,-1.4564,-0.64016,-0.64014,-0.053476,0.15062,0.43115,0.48213,0.35464,0.53317,0.66073,0.20163,-0.66564,-0.33407,0.22712,1.0433,-0.43607,0.12512,0.023041,-0.38513,-0.86975,-0.20655,-0.18106,-0.23204,0.12508,0.074062,0.25264,0.1761,-0.30858,-0.12998,0.27812,0.4312,0.023065,1.2983,0.53316,-0.66565,-0.71665,-0.46154,-0.43607,-0.41055,-0.25754,0.66072,0.38011,-0.46162,-0.33409,-0.23207,0.074038,0.32914,0.12509,0.35465,0.074087,-0.027969,-0.12999,-0.078984,-0.027969,0.023023,0.2526,0.50768,-0.15553,-0.079021,-0.53815,0.73724,0.35465,-0.92072,-0.81866,-0.46159,-0.12999,0.27808,0.12511,0.71172,0.074051,0.20159,-0.15557,-0.15554,0.048543,-0.10448,0.099619,-0.10444,0.63523,0.22711,0.25259,-0.53814,-0.46161,-0.18107,-0.053519,0.09954,-0.027938,0.15059,0.40566,-0.43602,-0.58907,0.25259,0.125,0.53314,0.45662,-0.002516,-0.15549,-0.2065,-0.4871,0.5332,0.96679,-0.53802,-0.81857,0.099534,0.48211,0.12503,-0.18104,0.048531,-0.2065,-0.18099,-0.002461,-0.053506,-0.002485,0.09957,-0.15551,0.2526,1.6045,-0.53817,-1.0228,-0.64014,0.099595,-0.078996,0.22708,-0.002454,0.66077,0.71177,0.17609,-0.30856,-0.56366,-0.33409,0.12502,-0.002479,-0.027974,-0.20653,-0.002436,0.17612,0.68627,-0.15551,-1.2269,-0.51265,0.55868,1.1709,-0.13001,-0.25756,0.15059,-0.28303,-0.25751,0.15059,0.27812,-0.181,-0.13002,0.38012,0.074075,-0.002485,-0.38508,-0.027938,-0.028005,-0.53814,0.30361,0.099552,0.38014,-0.027969,-0.23204,0.048567,0.40568,0.099588,-0.8442,-0.99726,0.48221,1.7065,0.48216,-0.23205,-0.6657,-0.58916,-0.33406,0.048543,0.55873,0.048598,-0.61463,0.048531,-0.028018,0.048536,0.048518,0.45667,0.25263,-0.48711,0.17606,-0.15553,-0.28304,0.22712,-0.027956,0.25262,0.22706,-0.48702,-0.23205,-0.053495,0.17607,0.35457,0.023047,0.074033,-0.15554,-0.25754,-0.25751,-0.053439,-0.23201,0.17608,0.30364,0.43118,-0.18103,0.25259,-0.23204,-0.33405,-0.002472,0.023029,0.1761,-0.18103,0.73721,-0.69113,-0.25751,-0.25754,0.20165,0.09954,0.32913,-0.69117,-0.35962,0.12498,0.35461,0.17607,0.17609,0.22713,0.22714,-0.00243,-0.18099,-0.283,-0.20651,-0.027969,0.099564,-0.027962,-0.33407,-0.3086,0.50767,0.9158,-0.0535,-0.15555,-0.38508,-0.9462,-0.71669,0.15057,0.30361,0.43117,0.38014,-0.1555,0.023035,0.27814,0.45668,-0.027907,-0.027969,-0.35959,-0.30859,0.023065,0.25263,0.55865,-0.053531,-0.86976,-0.41061,-0.64013,-0.053451,0.048555,-0.41058,0.1251,0.53321,0.30366,0.35464,0.22708,0.048531,-0.15553,0.1761,-0.30856,-0.002497,0.023023,0.63521,1.3495,-0.92073,-1.1758,-0.61466,0.30362,0.048536,-0.76771,0.048536,-0.15555,0.48216,0.9668,0.73726,0.30365,-0.2065,-0.71667,-0.38506,0.38015,0.023054,0.099564,0.38012,0.25259,-0.56362,-0.61465,-0.13001,0.2271,0.22709,-0.38506,-0.13,0.32912,-0.028005,0.40564,-0.23202,-0.46156,0.15059,0.60968,-0.25757,0.2526,0.17609,0.40566,0.099559,0.17607,-0.33406,-0.053464,-0.15553,-0.30858,-0.61468,-0.15547,-0.078953,0.43117,0.40568,0.099521,-0.4361,-0.027987,-0.15554,0.66074,0.4822,0.45666,-0.61468,-0.56363,-0.053476,0.099552,0.20159,0.074062,0.66074,0.38013,-0.94617,-0.71664,-0.10453,-0.079045,-0.002485,0.048549,0.09957,0.12509,0.27812,0.30363,-0.10449,-0.10449,-0.43609,0.43116,0.22709,0.17609,-0.28306,-0.35959,0.07402,-0.053476,-0.027962,-0.28303,-0.15551,-0.20653,-0.027944,0.27814,0.22711,0.074044,-0.41063,-0.38511,-0.002423,0.60972,0.45666,-0.002467,-0.23201,-0.35958,-0.30855,0.25262,-0.053464,-0.48712,0.023035,0.074062,0.22712,-0.181,-0.13,0.074038,0.2271,0.30361,0.15057,0.22712,-0.18101,-0.92073,-0.84421,0.43118,0.43118,0.32912,-0.18103,-0.027969,-0.15554,-0.23205,0.12512,0.099583,-0.10453,0.12505,0.17609,0.12507,-0.13001,-0.181,-0.181,-0.027931,0.25261,0.048561,0.048536,-0.002472,0.074062,0.12507,-0.20652,-0.0535,0.27812,-0.74219,-0.92072,0.1761,0.45666,1.0433,0.35462,-0.13004,-0.078996,-0.18098,-0.2065,-0.053415,-0.18098,-0.027974,-0.028005,0.099528,-0.15553,-0.10449,0.09957,0.5077,0.35467,-0.4106,-0.5891,-0.25756,-0.25756,0.3291,0.32912,0.55867,0.074062,-0.81869,-0.18099,0.12512,-0.027962,0.074038,0.53316,-0.028005,-0.58911,-0.23206,0.63522,0.91578,0.55869,-0.64016,-0.38509,-0.43607,-0.33404,-0.5636,0.048531,0.35461,0.5587,-0.20652,-0.078996,-0.23205,0.45666,-0.02798,-0.002454,-0.53812,-0.61465,0.48219,0.53318,0.50769,-0.002461,-0.53809,-0.61466,-0.002485,0.12502,-0.027969,0.074069,0.53318,0.50769,0.048561,-0.35956,-0.35959,-0.94623,-0.23202,0.12507,0.20159,0.27811,0.17607,-0.10447,0.30363,0.9158,-0.053488,-0.84424,-0.46157,-0.51262,-0.027969,0.17606,0.43114,0.12514,-0.18104,-0.053531,0.22706,0.048531,0.048536,-0.15549,-0.027907,0.20163,0.66075,0.17609,-0.92081,-0.41063,-0.20654,-0.078959,0.048573,-0.053476,0.30362,0.22711,0.27809,-0.1045,0.074057,0.63524,-0.053488,-0.25753,-0.33409,-0.56367,-0.078984,0.12507,0.32915,0.40563,0.074051,-0.0535,-0.10451,-0.18096,-0.12995,-0.12997,0.048555,0.63516,-0.10455,-0.43612,-0.25754,-0.30854,0.78828,0.53316,-0.35954,-0.12997,0.2526,0.22708,-0.8187,-0.25753,-0.053488,-0.10449,0.38015,-0.027969,-0.13001,0.22706,0.2271,0.78826,0.32913,-0.64012,-0.5381,-0.35955,-0.053525,0.048476,-0.30855,0.048567,0.48216,0.32913,-0.078984,0.048555,0.25263,-0.05347,-0.30855,0.15057,0.048555,-0.078984,-0.84421,-0.48712,0.53318,0.1761,-0.15553,0.048543,0.15058,1.5024,0.20159,-0.61463,-0.66561,-0.2065,-0.13002,0.074051,0.022998,0.15052,-0.10453,-0.33406,-0.23199,0.48217,0.50769,0.099583,-0.25753,-0.02798,-0.41057,-0.41058,0.074069,-0.027962,0.023023,0.35465,0.09957,-0.23202,0.15056,-0.13002,-0.10451,0.73726,0.63524,-0.25756,-1.0482,-0.38506,0.022992,0.022998,-0.10455,0.2271,0.5587,0.023072,-0.23202,-0.20653,-0.07899,-0.00243,0.023065,0.099559,0.20159,-0.002461,0.17608,-0.002485,-0.13002,0.15058,-0.53814,-0.10451,0.074051,0.50769,-0.23198,-0.58909,0.5077,0.48217,0.3291,-0.3341,-0.71669,-0.079002,-0.078996,-0.079002,-0.002454,0.20159,0.22711,0.22716,0.76277,-0.23201,0.023035,-0.20653,-0.35958,-0.13004,0.12504,-0.13,0.048561,0.023054,0.45666,-0.10451,-0.15554,-0.10449,-0.58905,0.30368,0.78827,0.048506,-0.38514,-0.07899,-0.053464,0.40564,-0.30859,-0.33406,-0.61464,0.099583,0.48218,0.8393,0.2016,-0.28303,-0.35953,-0.30855,-0.43609,-0.002503,0.15059,0.5842,0.94128,-0.46161,-0.25756,-0.51262,0.048561,0.43115,-0.0535,-0.64012,0.023029,0.45666,0.15064,-0.079021,-0.079008,-0.078977,-0.15551,0.023017,-0.027962,0.22708,0.074062,-0.053488,-0.027944,-0.20652,-0.10452,-0.027987,0.40566,0.78825,0.099577,-0.002454,-0.43609,-0.41058,-0.74218,-0.23206,0.58419,0.32912,0.022998,-0.053451,0.099588,-0.027974,-0.56362,-0.30856,0.32912,0.38014,0.27808,0.20158,0.023047,-0.05347,-0.18098,-0.25756,-0.35957,0.27811,0.45666,1.1454,-0.58912,-0.92074,-0.4871,-0.35956,0.17607,-0.027987,-0.28302,0.023054,0.023047,0.25259,-0.38499,0.58417,0.4056,-0.053513,0.023041,0.17606,0.023054,-0.12997,-0.43606,0.15056,0.074062,-0.4871,-0.25753,0.32916,-0.027993,0.048555,0.023065,0.3036,-0.002485,0.023023,-0.30854,-0.43611,-0.23201,-0.25753,0.35464,0.76273,0.25257,-0.64017,0.074038,0.074075,0.074087,-0.18098,-0.00243,0.2781,0.50766,0.17607,-0.15553,0.15058,-0.25754,-0.7932,-0.58913,0.27812,0.12509,0.81378,0.22713,-0.20652,0.15056,0.074002,0.15056,-0.28306,-0.35958,0.15056,0.17607,0.2016,-0.027969,-0.28304,-0.28302,0.45668,0.35468,0.43117,-0.15553,-0.3086,-0.20655,-0.027993,-0.13002,0.09957,-0.02798,0.023017,0.38015,0.17616,0.048543,-0.18105,-0.28303,-0.027993,-0.28304,-0.18101,-0.4361,-0.078972,0.48218,0.99232,0.40563,-0.3851,-0.58913,0.023054,0.27814,-0.51264,0.023047,-0.078984,-0.002461,0.048567,0.02301,0.50766,0.17613,0.71177,-0.10452,-0.71668,-0.41059,-0.027969,0.15058,-0.12999,-0.28305,-0.64018,0.32909,0.63522,0.32912,-0.10444,0.22707,-0.027993,-0.1045,-0.23204,-0.053495,0.074069,0.20163,-0.43608,0.023017,0.20159,0.25262,0.8648,-0.28303,-0.61467,-0.25758,-0.10449,0.074038,0.12512,-0.61455,-0.28304,0.99227,0.35458,-0.25754,-0.002491,-0.38509,-0.51262,0.25263,0.32915,0.2271,0.12508,0.099583,-0.02795,-0.078984,-0.15553,-0.12999,-0.027962,0.099534,0.5332,0.81376,-0.53812,-0.81868,-0.43607,-0.10455,0.22712,-0.027993,0.55865,0.023005,-0.84414,-0.33401,0.20163,1.0178,0.86475,-0.079039,-0.81872,-0.94622,0.20161,0.45669,-0.078984,-0.05347,0.12508,-0.12998,0.074062,-0.002479,-0.20653,-0.027998,0.12507,0.074051,0.12508,-0.23202,0.074044,-0.35952,0.30355,0.074051,-0.10448,-0.002491,-0.053519,0.022998,0.12507,0.30365,0.89033,0.20161,-0.41058,-0.48711,-0.58914,-0.28306,-0.30856,-0.2065,-0.053458,0.17608,0.35462,0.43115,-0.13001,-0.35955,0.074081,-0.23204,0.15059,0.023035,0.099546,0.38017,0.63517,0.86475,0.17601,-1.0993,-0.84419,-0.46162,-0.48704,-0.33401,0.17607,0.30363,0.25262,0.32912,0.27813,0.12505,0.074057,0.12509,-0.078947,-0.35954,-0.23202,0.58419,1.3239,0.50764,-1.2523,-1.4309,0.074002,0.25259,0.30362,-0.46161,-0.25756,0.048573,0.1506,0.2016,0.20164,0.17609,0.15059,-0.002461,-0.1045,-0.002472,-0.1045,-0.027993,0.15056,-0.28306,-0.15555,-0.12999,0.50771,0.22713,0.32915,-0.10443,-0.079057,-0.25761,0.099491,-0.89523,-0.30855,0.12508,0.20161,0.15059,0.27814,0.20161,0.12509,0.023072,-0.078996,-0.02798,0.12507,-0.027987,0.30362,-0.07899,-0.41061,-0.43611,-0.4106,0.30364,0.8393,0.48221,0.07402,-0.15549,0.1506,-0.69124,-0.58918,0.17603,-0.79319,-0.25757,0.40564,0.40569,0.32917,0.27817,0.43118,-0.078966,-0.4361,0.15058,0.12507,-0.002454,-0.027969,-0.33406,-0.15552,-0.30855,0.2271,0.17607,0.60971,-0.1045,-0.28308,-0.20656,-0.3851,-0.02792,0.023041,-0.002418,-0.18097,-0.28305,0.35461,0.12505,0.048476,0.32909,-0.078892,0.71173,0.50763,0.22708,0.048567,-0.2065,-0.10448,-0.07899,-0.64015,-1.0993,0.074062,0.30363,1.1454,0.30362,-0.58912,-0.79319,-0.64018,0.38013,0.048543,0.023029,0.048561,-0.027974,0.074038,0.074069,0.074069,0.074075,0.12504,0.38011,-0.15547,0.35467,-0.33406,-0.20655,0.4056,-0.15544,-0.25755,0.25259,0.43114,0.20159,-0.56362,-0.71668,0.35462,-0.18101,-0.20651,-0.181,-0.053482,0.048525,0.15057,0.30362,0.1506,0.17606,0.20159,0.12505,-0.12999,-0.2065,-0.15548,-0.23201,-0.053488,0.099515,0.20155,0.15055,-0.30853,0.22712,-0.13002,0.2526,-0.30855,-0.48711,-0.181,0.099595,0.43113,-0.23204,-0.053476,0.17609,0.048567,-0.64015,-0.23202,0.45664,0.12507,0.55867,0.32909,0.4822,-0.30854,-0.23203,-0.18098,-0.43609,-0.28305,0.17606,-0.002467,-0.079008,-0.002485,0.35465,0.50771,-0.1045,0.40565,-0.71667,-0.74218,-0.38509,-0.23202,0.40569,0.76275,1.5535,-0.12998,-0.69125,-0.89522,0.099564,0.12504,0.2781,-0.027944,-0.10447,-0.002491,-0.10447,0.048567,0.048531,0.074069,0.023035,-0.027987,0.048531,-0.078966,0.048555,0.15056,0.35464,0.45668,-0.46159,-0.76765,-0.7422,-0.51262,1.2474,1.0178,0.81375,-0.9973,-0.69119,-0.1555,0.17609,0.12509,-0.58915,-0.33401,0.32913,0.45666,0.27811,0.099564,0.12507,0.15059,-0.13,-0.027969,-0.002491,-0.027969,-0.46157,-0.20656,0.023041,-0.18101,0.50768,0.50769,-0.078984,-0.56362,-0.28301,-0.30856,-0.20656,0.25256,0.48214,0.68624,-0.23199,-0.15551,-0.002479,0.048543,0.12505,-0.23203,-0.027956,0.22714,0.074075,-0.86972,-0.053488,0.27811,0.32913,0.43115,0.48218,-0.027969,-0.46162,-0.18104,-0.079008,0.099552,0.15059,-0.12997,-0.81866,-0.43607,0.15065,0.43114,1.0178,-0.13004,-0.3596,-0.23207,-0.002479,0.12505,-0.12996,-0.002448,-0.027944,0.023059,-0.02798,0.12507,-0.002467,0.12505,-0.12998,-0.12999,0.17607,0.25263,-0.66569,-0.41063,0.48216,0.78828,-0.51259,-0.13001,0.023035,0.3291,0.43122,0.074013,0.32915,-0.7422,-0.3341,0.15057,0.30361,-0.43609,-0.18098,0.074057,0.20159,0.25262,-0.027969,-0.027944,0.074044,-0.027956,-0.25757,-0.15549,0.35467,0.50767,0.5332,-0.25757,-0.38509,-0.38506,-0.13001,-0.15548,-0.4871,-0.25754,0.023072,0.3546,0.074026,0.099564,0.22707,0.40566,0.22712,-0.10449,-0.46158,-0.33404,0.25263,-0.079014,0.25259,-0.15548,-0.053513,-0.25754,-0.20652,-0.13002,0.074013,0.71175,0.32918,0.099534,-0.23206,-0.38506,-0.23202,-0.0535,-0.002472,0.17606,0.12508,0.20161,0.09957,-0.51262,-0.46159,0.50768,1.0689,0.43116,-0.33404,-0.41058,-0.33411,-0.46161,-0.027969,-0.3851,0.023054,0.60972,0.30361,-0.15551,-0.053495,0.12505,-0.002448,0.048549,0.1761,0.048567,-0.13,-0.15551,-0.10449,0.12505,0.15056,-0.13002,-0.15551,-0.027962,-0.027962,-0.053476,0.074062,0.15059,-0.18098,-0.15549,0.35461,0.048536,-0.46165,-0.41058,0.22714,0.48219,0.45667,-0.28305,0.25259,-0.53816,-0.56361,0.6097,-0.5381,-0.56352,-0.20652,0.3801,0.40562,0.45664,-0.053519,-0.002461,0.074062,-0.053476,0.12508,-0.23201,-0.18101,-0.027993,-0.10449,-0.078977,-0.10451,0.20159,0.43117,0.5587,0.15059,-0.53814,-0.6402,-0.078972,-0.18101,0.048536,-0.002461,0.20158,0.15065,-0.20652,0.074044,0.20155,0.048525,0.12506,-0.053451,-0.053451,0.30362,0.15056,0.048531,-0.23202,-0.28302,-0.25754,-0.35953,0.20161,0.43117,1.1709,0.023041,-0.53813,-0.97173,-0.12999,-0.20652,-0.18106,-0.053525,0.40564,0.32917,0.40566,-0.53812,-0.002472,0.48219,0.1761,0.09954,-0.12998,-0.28301,0.07402,0.099552,0.099588,0.35463,-0.13001,-0.23203,-0.35957,-0.13004,0.15056,0.074069,-0.078972,-0.35956,-0.35949,0.48214,0.43118,-0.25754,-0.13004,0.22705,0.40563,-0.15551,-0.10449,0.023054,-0.51262,-0.33404,0.17614,0.25263,-0.13,-0.23204,0.45664,0.023054,-0.15551,0.099564,-0.43607,-0.25749,0.17607,0.3036,-0.1045,-0.15553,-0.28307,-0.10449,-0.078996,0.2271,-0.078941,0.27809,-0.30852,-0.25749,0.30362,0.43113,-0.23206,-0.079008,-0.027956,-0.30855,0.22708,-0.20652,-0.07899,0.83927,-0.23199,0.68626,-0.41061,-0.76768,-0.35957,-0.2575,-0.078984,0.099546,0.43112,0.50766,0.48214,-0.027962,-0.12995,0.048536,-0.13002,-0.56362,-0.002472,-0.027962,0.12505,0.099552,-0.15549,0.074093,-0.10447,0.15054,0.12505,-0.02798,0.45665,-0.078996,-0.7932,-0.35959,-0.053433
-0.10449,-0.002467,0.17607,-0.10448,-0.053476,-0.002472,-0.13,0.023047,0.048531,-0.12999,0.023041,-0.10447,-0.002479,0.12506,0.023035,-0.12999,-0.002467,0.17606,-0.027974,-0.20649,-0.027969,0.074051,0.048543,-0.12998,-0.181,0.023017,0.048518,0.023023,-0.027962,0.048561,-0.078972,-0.10449,-0.027974,0.15057,0.023041,-0.078972,-0.181,-0.078996,0.023023,0.048549,0.048555,-0.12998,-0.053482,-0.05347,-0.053464,0.22707,0.048518,-0.12999,-0.053482,0.023035,0.074062,0.023047,-0.05347,-0.053495,0.048525,0.048549,-0.027969,-0.15549,-0.053482,0.048536,0.048543,-0.12999,-0.002467,0.023035,0.15056,-0.002461,-0.13,-0.13,-0.12999,-0.053458,0.048536,0.17607,0.023047,-0.027969,-0.1045,-0.12999,-0.002472,0.048549,0.048543,-0.078972,-0.078966,-0.053488,-0.053482,0.12505,0.099552,0.023047,-0.12999,-0.1045,-0.027969,0.17606,0.074044,-0.10449,-0.002461,0.099564,0.074038,-0.078996,-0.13,-0.002479,0.048543,-0.002472,-0.12999,-0.078972,0.074051,0.15056,0.023041,-0.002467,-0.20652,-0.181,-0.078972,-0.002467,0.099546,0.15056,0.15056,0.048555,-0.027974,-0.078972,-0.10448,-0.12999,-0.07899,-0.02798,0.048536,0.099552,0.15057,0.048549,-0.053476,-0.053476,-0.18101,-0.078996,0.074038,0.074062,0.023054,-0.002454,-0.078984,-0.002467,0.15056,-0.078972,-0.053488,0.074038,0.074051,-0.002467,0.023041,-0.078996,0.023047,0.023047,0.023029,-0.13,-0.20651,-0.053476,0.023047,0.048531,-0.078977,0.023041,0.12505,0.12506,0.023047,0.023047,0.023047,-0.053464,-0.053482,-0.002472,-0.027974,0.023035,0.12505,-0.053476,-0.027969,-0.078977,-0.30852,0.12504,0.023054,-0.002461,-0.12999,0.048543,0.15056,0.099564,0.023035,-0.2065,0.074044,-0.027987,0.099552,-0.10448,-0.15549,-0.10449,0.048543,0.12507,0.09954,-0.027969,-0.23202,0.023035,0.023047,-0.002461,0.023041,0.17606,0.048543,-0.027956,-0.002461,-0.027969,-0.07899,-0.027974,0.074038,0.023041,-0.12999,0.023035,0.15056,-0.027969,0.048555,-0.002454,-0.078977,-0.283,0.099546,0.023035,-0.078984,0.023023,0.074044,0.099546,0.074057,0.023029,-0.078984,-0.027974,0.048531,-0.002467,0.099559,-0.1555,0.048536,0.099564,-0.027969,-0.078984,-0.078984,-0.002472,0.074044,0.048561,-0.027956,-0.002479,0.048543,0.22707,-0.027969,-0.078966,-0.078984,-0.053488,0.023029,0.074038,0.12507,-0.30849,-0.002467,-0.002485,0.12505,0.17606,-0.07899,-0.20651,-0.18099,0.023047,0.12506,0.074057,-0.10449,-0.053464,-0.027969,-0.002491,-0.078972,0.023035,0.023023,0.023047,0.099552,-0.002467,-0.12998,0.074057,0.09954,0.023029,-0.12999,0.048543,0.074044,-0.078977,-0.027974,0.074038,0.048543,-0.15549,-0.078977,0.12506,0.074038,-0.1045,-0.20649,0.12506,0.099546,-0.002479,-0.027969,0.15056,0.17606,-0.053482,-0.23201,-0.078984,0.023041,0.09957,-0.078972,0.023023,0.15056,0.048531,-0.10447,-0.10448,-0.181,-0.10449,0.023035,-0.002467,0.15056,0.023035,-0.027956,-0.02798,-0.027987,-0.10449,0.048525,0.074026,-0.027969,0.048555,-0.10447,-0.05347,0.023041,-0.078984,-0.002467,-0.12998,0.023047,-0.002472,-0.10449,-0.10449,0.048543,0.09954,0.17607,0.099559,-0.002472,-0.12999,-0.23202,-0.053476,-0.053464,0.048543,0.17606,0.099552,0.048549,-0.027962,-0.10448,0.048549,0.048536,0.023029,0.074044,0.048555,-0.12998,-0.053464,-0.053482,-0.002472,-0.23199,0.12504,0.12504,0.099552,0.023035,-0.078972,-0.027969,0.023054,-0.078959,-0.12999,-0.078984,-0.078984,-0.12999,-0.002472,-0.053476,0.023035,0.17607,0.099552,0.15057,0.074057,-0.05347,-0.18101,-0.25753,-0.078977,-0.10446,0.15056,0.15056,0.023041,0.048543,-0.181,-0.20652,-0.053488,0.023035,0.15057,0.074051,0.023041,-0.15549,-0.10448,-0.053488,-0.002479,0.09954,0.12507,0.074075,0.30367,0.023023,-0.7422,-0.41058,0.15057,0.25259,0.048561,0.023072,-0.053458,-0.28308,-0.027993,0.22708,0.074075,0.12507,0.074038,0.023041,-0.027956,-0.027944,-0.13,-0.25754,-0.002479,0.17607,-0.13002,-0.2575,0.023035,0.048536,-0.027969,0.048549,0.17607,0.048555,-0.053464,-0.078996,0.074044,0.12507,-0.10447,-0.10449,0.023047,-0.002472,0.099552,0.25259,-0.027987,-0.38507,-0.38506,-0.10449,-0.002467,0.023041,-0.053464,0.023035,0.25259,0.048549,-0.002454,0.023047,-0.002472,-0.027974,-0.002472,0.17609,-0.053464,-0.027987,-0.002479,-0.25754,-0.10449,-0.1045,0.099546,0.15057,0.099588,0.074069,-0.15551,-0.10449,0.023054,-0.053482,-0.12999,-0.027969,0.12505,0.20159,0.048543,0.09957,0.15057,-0.05347,-0.58915,-0.15553,0.3036,0.09957,-0.002448,-0.002461,-0.05347,-0.027969,0.099559,0.074033,-0.07899,-0.078977,0.099559,-0.027987,-0.181,-0.2065,0.15057,0.15059,0.099546,0.09957,-0.053488,-0.002485,-0.027969,-0.078977,-0.15549,-0.15549,0.023035,0.17607,0.15057,-0.05347,-0.05347,0.20158,0.099552,0.0977,0.19971,0.023023,-0.18098,-0.078977,-0.002485,-0.13,0.023059,0.099552,-0.002472,-0.053488,-0.10449,-0.002454,-0.027969,-0.13,0.074044,0.048561,0.048549,0.099546,-0.18103,-0.027974,0.074062,-0.002472,-0.002448,-0.02798,0.099546,0.099559,0.048561,-0.053476,-0.078977,-0.15552,-0.02798,-0.027969,-0.027962,-0.002448,-0.07899,-0.07899,-0.053482,0.023029,-0.002467,-0.053464,0.023059,-0.053476,-0.002467,0.048531,0.023023,0.023041,0.023059,0.074057,-0.002467,-0.13,-0.02798,0.074051,0.023054,-0.20648,-0.053506,0.074038,0.099564,0.12507,0.09954,-0.002472,-0.027956,-0.053476,-0.10449,-0.002491,-0.002467,-0.002454,-0.002461,0.023041,0.12506,-0.078996,0.074044,-0.053482,-0.027974,-0.053464,-0.078977,-0.027962,-0.002472,-0.027987,0.023035,-0.002461,-0.002461,-0.078977,-0.10448,0.023041,-0.002461,0.048543,0.074038,-0.027969,-0.002461,-0.2065,-0.002467,-0.078996,-0.02798,0.074051,0.099546,-0.002461,-0.078972,-0.027956,0.048549,-0.053495,-0.027987,-0.027969,0.12509,0.55869,-0.027974,-0.30856,-0.13002,-0.0535,-0.13,0.023035,0.17606,0.074038,0.12506,0.099564,-0.02795,0.048561,0.023054,0.023029,-0.002485,-0.1045,-0.053482,0.023035,-0.078972,-0.027962,-0.053482,-0.027974,0.074051,-0.07899,-0.07899,-0.002479,-0.002467,0.048549,-0.002448,-0.027962,0.023035,-0.053482,0.099546,0.023041,0.023054,0.12507,-0.053476,-0.053488,0.048531,0.099559,-0.053464,-0.053488,0.074038,0.048549,-0.12998,-0.079002,0.048531,0.099559,0.048549,0.074044,-0.13,0.023035,-0.053458,-0.15548,-0.002461,-0.053488,-0.053482,-0.027969,-0.002479,0.12504,0.023035,-0.027969,0.023054,-0.027956,-0.12998,-0.15549,-0.2065,-0.18099,-0.027956,0.048543,-0.027969,0.023035,-0.053476,-0.2065,-0.13,0.023017,-0.23205,0.30361,0.20158,0.3546,0.32912,-0.84414,-0.079057,0.17604,0.53313,0.48218,-0.027907,-0.84413,-0.56361,-0.30855,0.12507,0.15055,0.99224,1.3494,-0.64018,-1.4564,-0.25751,0.17606,0.99239,0.3547,-1.5584,0.48217,-0.02806,1.0943,0.50784,-1.5583,-1.584,0.048427,0.55852,1.7573,1.3494,-0.97161,-1.0737,-0.48703,0.58421,0.91575,-0.86973,1.6301,1.732,-0.66566,-3.6245,-3.7009,-1.3034,3.2625,1.7575,1.2984,-0.48708,1.6556,1.63,1.9361,-3.7011,-2.0431,-1.482,-2.4512,-2.1706,1.3749,2.4717,1.8596,1.0434,0.89035,0.53325,0.25272,-0.002436,-0.56359,-1.0482,-0.76758,0.73716,0.17597,-0.51274,-0.69124,-0.028054,1.9105,-0.84408,1.4261,-1.5838,-1.3035,-1.4054,-0.2322,0.45653,0.074167,1.2728,1.0433,-0.41027,0.023152,0.7372,0.71169,1.0688,0.0485,0.15061,-0.84414,-0.3341,0.22709,-0.46161,-0.66568,-0.84413,-0.002607,0.78801,1.0177,-0.58896,-1.3031,0.81375,0.15062,-0.51241,-0.028066,0.78816,0.074038,-0.25748,-0.48703,-0.23202,0.20153,0.25254,0.66064,0.15051,0.45656,-3.0118,0.27802,1.2217,0.96671,0.22705,0.17607,0.32915,-0.15553,-0.46161,-1.3033,-0.23199,0.22715,2.5484,1.0434,-1.0483,-1.2014,-1.3289,-1.0228,-0.25756,0.55871,0.12505,0.07402,0.30362,0.4057,0.27815,0.91568,0.53317,-0.33396,-0.20657,-0.33404,-0.2065,-0.71658,-0.51257,0.50765,0.76278,0.25261,-0.71666,-0.92078,-0.28317,0.43108,0.94129,0.27822,-0.15553,0.022998,-0.43612,-0.30852,-0.43608,0.91577,-0.053476,0.50772,-2.0174,1.0432,1.834,0.20169,-1.3798,-0.002467,-0.46165,0.83925,-0.23195,-0.053506,-0.7422,-0.48716,-0.10452,0.48214,0.22707,0.048604,-0.28301,0.17608,0.58416,0.12508,-0.30856,-0.86969,-0.053549,1.0688,0.35484,-0.66558,-0.20658,0.20152,0.22704,-0.23205,0.20159,-0.05347,0.40568,0.099552,-0.33405,-0.12999,-0.23201,0.17607,-0.002479,-0.35957,-0.13,0.27811,0.50769,0.22708,-0.35958,-0.002461,0.43116,-0.51254,0.048567,-0.33403,0.63516,0.12505,0.12508,-0.84424,-0.28308,-0.4361,-0.43609,0.38019,0.83931,1.3239,-1.0738,-1.0737,-0.33402,0.83925,0.074002,0.48216,-0.33409,-0.64013,-0.10447,0.89029,-0.56364,-0.25753,0.66074,1.579,0.022992,-0.25755,-0.10448,-0.79322,-0.71668,-0.61461,-0.23199,0.12507,0.32908,0.50767,-0.30851,0.35459,0.55865,0.048653,-0.23203,-0.3596,-0.079033,0.86477,0.66074,-0.61461,-0.23205,-0.028042,-0.46163,-0.64012,-0.23199,0.048585,0.40565,0.02301,0.32914,0.60976,0.76283,-0.66568,-0.6402,0.32908,0.20159,-0.079026,-0.078977,-0.35957,0.074069,-0.33405,-0.41058,-0.20653,0.20159,-0.33408,-0.23204,0.17614,1.0433,0.86482,-0.41058,-0.079026,-0.58915,0.30361,-0.69116,-0.002479,0.023041,0.048555,0.81375,0.15057,-0.23204,-0.46159,0.074038,-0.43611,-0.51259,-0.02798,0.38016,0.48216,0.12509,-0.18097,0.30358,-0.30855,-0.15548,-0.028005,-0.027962,0.30363,-0.1045,0.2526,-0.027998,-0.1045,0.25262,-0.53809,0.17609,-0.28301,-0.51258,0.074013,0.27812,-0.4871,-0.30859,0.81373,1.3749,0.20162,-0.86969,-0.02798,-0.15554,-0.33404,-0.41055,-0.07899,0.099564,0.35467,0.023017,0.17609,0.12508,-0.15551,-0.33407,-0.20653,0.048536,0.68623,-0.15552,-0.30855,-0.38506,-0.027969,-0.10448,0.35461,0.43115,0.1761,-0.181,-0.30858,-0.43612,0.023017,0.76276,1.5025,-0.48713,-0.18099,-0.69113,-0.35954,-0.41057,-0.23204,-0.15555,0.27812,-0.66567,0.32916,1.1453,0.22712,-0.76764,-0.20652,0.40561,-0.079002,-0.30854,-0.18098,0.89027,0.17609,-0.51261,-0.35957,-0.02795,-0.053476,-0.4871,0.22709,0.023023,0.15059,0.09957,0.35466,0.15057,-0.053525,0.27811,-0.15549,-0.58907,-0.18097,-0.15554,-0.20652,0.27806,0.30358,-0.20656,0.25261,1.0943,0.1506,-0.89525,-0.30857,-0.20649,-0.41054,-0.33402,-0.12998,-0.10447,0.048536,0.81376,0.22707,-0.30855,0.023047,-0.15545,0.76273,-0.15554,-0.28307,-0.33409,-0.053488,0.074075,0.20164,-0.25753,0.048549,0.099577,0.35461,-0.15553,-0.58913,-0.15553,-0.027931,0.17609,-0.48713,0.63521,-0.33408,0.30365,0.99239,-0.20649,-0.94626,-0.30858,0.048518,0.12503,-0.18103,0.2781,0.45666,0.048573,0.30365,-0.15548,-0.30853,-0.51262,-0.23204,0.023005,0.17604,0.43116,0.45668,-1.1759,0.074062,0.074118,0.5332,0.048531,0.12502,0.099564,-0.23204,-0.078959,0.1251,-0.002491,-0.10451,-0.30854,0.50771,0.15057,-0.028011,-0.38505,-0.53804,-0.13001,-0.48711,-0.18103,0.53318,0.048525,0.94128,0.38016,-0.20653,-0.43609,-0.002443,0.023035,0.43115,-0.00243,-0.30856,-0.25755,-0.38505,0.023047,-0.33404,0.074051,-0.002497,-0.027998,0.43116,0.76277,0.55866,0.048543,-0.078947,-0.64016,-0.66567,-0.64012,0.09957,0.099577,0.35463,-0.20654,0.099595,-0.61458,-0.053427,0.25259,1.4259,-0.23213,-0.18103,-0.3341,0.5587,0.22713,0.38019,-0.69119,-0.61455,-0.61466,-0.25756,-0.002552,0.17604,0.32913,0.099564,0.099613,-0.078959,-0.002454,0.22707,0.25257,-0.53809,0.074106,-0.002443,-0.5126,0.074038,-0.002485,0.099552,0.12507,-0.30858,-0.078996,0.53318,0.023029,0.2526,-0.079008,-0.002461,-0.58913,-0.56361,-0.15547,0.074044,0.25262,0.17607,-0.002436,-0.15552,0.074069,0.048555,0.099521,0.099546,0.12505,0.12507,-0.61462,-0.18101,-0.002467,0.58422,0.15059,0.048543,-0.15551,-0.027969,-0.053451,-0.43611,-0.79315,-0.25751,0.048494,0.30356,0.81371,0.38013,0.38013,-0.15551,-0.74211,-0.46154,0.048549,0.63519,0.30361,-0.86972,0.074069,0.40568,0.074093,-0.28306,0.22709,0.38014,0.15059,-0.4361,-0.07899,-0.18103,-0.23204,-0.28308,-0.10452,0.023054,0.023096,0.22713,0.35464,-0.053519,-0.10452,-0.69115,0.40563,1.2729,1.4004,-1.0228,-0.92067,-0.56363,-0.20653,0.12507,0.43115,0.023072,-0.05347,-0.51257,-0.20647,0.58414,0.55863,-0.079008,-0.25755,0.40563,0.099577,0.09957,-0.1045,-0.33404,-0.66564,0.048585,-0.28302,0.27809,-0.28306,0.17609,-0.1045,-0.53812,0.023065,0.38012,0.3036,0.074033,0.023054,0.73727,0.12508,0.45672,-0.64012,-0.64017,-0.46164,-0.30854,0.55866,0.023078,-0.61457,-0.00251,0.30357,-0.002479,0.1251,-0.10448,0.02301,0.17611,0.27812,-0.30856,0.27809,0.12507,-0.5126,-0.2065,0.22708,0.32915,0.09957,-0.20656,0.50764,0.023047,-0.30856,-0.71667,-0.48711,-0.053451,0.30366,-0.10446,0.09954,0.35458,0.17603,0.099552,0.04861,-0.28302,-0.15552,0.2271,0.68626,-0.079014,-0.51267,-0.46161,-0.053458,-0.23197,0.25262,0.55868,1.1198,-0.23207,-0.58914,-0.41056,-0.181,0.12505,0.60967,-0.25754,-0.43606,-0.4871,-0.02792,1.0179,0.63522,-0.33408,-0.13005,-0.35959,-0.20653,-0.30857,0.2016,-0.28303,0.73726,0.43117,-0.35957,-0.35956,-0.10452,0.17609,0.48212,-0.5126,-0.69108,-0.002479,-0.13002,0.15053,0.2526,0.66075,0.27808,-0.027987,0.12505,-0.078972,-0.53806,-0.15553,-0.13001,0.22711,-0.13,-0.002461,0.35462,0.12509,-0.28303,-0.20653,-0.20653,-0.10451,0.25259,0.22708,-0.38506,0.023054,0.15057,-0.053488,-0.078984,-0.078972,0.48218,0.25259,-0.20654,0.12505,0.30361,-0.15553,-0.64014,-0.6401,0.099583,0.71175,0.81371,-0.76773,-0.58914,0.099552,0.53319,-0.28304,-0.89521,0.25263,-0.10449,0.25262,0.55868,0.15057,-0.053482,-0.46159,-0.053476,0.023035,-0.18105,0.15057,0.17608,0.40566,-0.027962,-0.079014,-0.20654,-0.10451,-0.053476,0.023065,-0.078984,-0.10452,0.099546,0.43118,0.32913,-0.38508,-0.74218,-0.18099,0.12509,-0.13002,0.17606,-0.3595,0.40563,0.30361,-0.30854,0.074013,0.17607,0.074057,0.17607,-0.05347,-0.181,-0.1555,-0.10449,0.074051,-0.1045,-0.28308,0.22712,-0.053451,0.22712,0.048561,-0.18101,-0.027993,-0.30861,-0.41063,0.074069,0.40566,0.074051,0.048561,0.023065,0.40565,0.074033,0.12508,0.048549,-0.30854,-0.69111,0.12508,-0.02798,0.022998,0.12503,0.27811,0.17609,-0.20651,0.048525,0.15056,0.20171,0.099619,-0.027969,-0.18106,-0.2066,-0.13006,-0.28305,-0.12999,0.15054,-0.027962,0.1506,0.30365,-0.053464,-0.23202,0.12508,0.38014,0.023017,-0.25753,-0.10453,0.048536,0.048531,-0.15548,-0.002503,-0.028042,0.48218,0.20161,-0.078984,-0.10444,-0.13,-0.33408,-0.02798,0.1251,0.023029,-0.002467,0.12505,-0.12997,0.1251,-0.56365,-0.15548,0.3036,0.048512,0.074062,0.074075,0.074069,0.25259,-0.12999,-0.33405,-0.13002,-0.027956,0.17609,0.074044,-0.25754,-0.20652,0.15057,0.25261,-0.23198,0.12504,0.12508,-0.10449,0.048525,-0.079008,-0.15551,-0.43609,0.1251,0.048561,0.40565,0.22708,0.35464,-0.053506,-0.43607,-0.41058,-0.053476,0.048561,-0.33401,0.12507,0.27806,0.17604,-0.18101,-0.33402,0.17608,0.45666,0.66072,-0.20652,-0.43609,-0.10447,-0.15545,-0.13004,-0.002491,0.17607,-0.13001,-0.027998,-0.002485,0.099564,-0.20651,-0.002467,0.15056,0.66074,0.15056,-0.027974,-0.25753,-0.28303,-0.48711,-0.2831,-0.053519,0.074044,0.12509,0.99234,0.58421,-0.33406,-0.43608,-0.28304,0.17607,-0.35958,-0.56354,-0.18098,-0.232,0.4566,0.22706,0.27809,0.048512,0.074051,0.048555,0.58421,0.074075,-0.30854,-0.053482,0.17611,-0.51258,-0.5126,-0.51262,-0.15551,0.20159,0.45666,0.20158,0.12509,0.023047,0.15053,-0.15553,0.023059,-0.30854,-0.078996,0.2271,-0.10452,0.30361,-0.12998,0.1506,-0.28301,-0.027944,0.40565,-0.20652,0.023017,-0.41055,-0.53812,0.022961,0.53314,0.074026,0.40566,0.38017,-0.15549,-0.35956,-0.053476,-0.41056,0.15057,-0.28304,0.25262,0.71175,-0.18103,-0.33407,-0.002467,-0.053464,0.25263,0.27811,0.40562,-0.43612,-0.23206,0.40561,0.15058,0.22715,-0.41054,-0.79315,-0.10451,0.22708,-0.002467,-0.053519,0.25258,0.074026,-0.027962,0.023078,-0.20652,-0.027974,0.32911,0.38013,-0.53804,-0.23201,-0.20649,0.12504,0.35461,0.074033,-0.002479,0.074044,-0.002443,0.20159,-0.053495,-0.15554,-0.12996,-0.2065,-0.25752,0.35459,-0.002497,-0.15548,-0.02795,0.38014,0.12508,-0.38508,-0.00243,-0.053488,0.32913,0.22706,-0.053488,-0.13001,0.099528,0.048536,-0.002467,-0.079008,0.074057,0.023078,-0.64006,-0.41058,-0.002479,0.15057,0.20159,-0.13002,0.20158,0.6097,0.30363,-0.92075,0.074008,-0.002472,-0.18098,-0.43604,0.15057,0.30361,0.58422,0.17606,-0.4871,-0.33405,0.17604,0.22708,0.099577,-0.053464,-0.23201,-0.181,-0.002485,0.048561,0.15058,0.15058,0.17606,-0.20657,-0.46159,-0.64013,0.20162,0.17609,0.6352,0.048531,-0.43602,-0.13001,-0.18104,-0.1045,0.12509,0.20161,-0.002467,0.02301,0.023023,0.20155,0.023017,-0.181,-0.002423,-0.23201,-0.15545,-0.20652,0.3546,0.40561,-0.18099,-0.28305,-0.20656,-0.053525,-0.027993,0.099583,0.25263,-0.25753,-0.12998,0.04858,-0.027962,0.22715,0.12509,-0.15553,-0.028029,0.048518,-0.079021,-0.02798,0.12508,-0.002485,-0.1045,0.20158,-0.15542,-0.15548,-0.10446,-0.1045,0.17601,0.02301,-0.18106,0.45668,0.048555,0.32915,-0.15554,-0.18101,-0.10446,-0.15552,0.023047,0.048555,0.32914,-0.23202,-0.18102,-0.23203,-0.028005,0.3291,-0.13001,-0.25754,0.25263,0.35468,0.48219,0.023035,-0.53812,-0.53812,0.048573,-0.10452,0.048518,0.12506,-0.1555,0.04858,0.15059,0.099559,-0.46156,-0.1045,0.15059,0.35464,-0.002503,0.048506,0.048549,-0.51262,-0.12998,0.15059,-0.2065,-0.23201,0.25261,0.3291,0.32912,-0.10449,-0.38506,-0.18101,-0.20652,-0.027969,-0.18103,0.099546,0.35464,0.53319,-0.15551,-0.181,-0.10451,-0.1555,-0.002479,-0.28303,-0.10449,0.27809,0.35465,0.023054,-0.002467,0.25259,-0.48711,-0.181,-0.053464,0.023023,0.099534,0.074044,0.2016,0.074069,0.32914,0.38014,-0.053476,-0.92073,-0.38508,-0.15549,0.074051,0.43112,0.023035,-0.18095,0.12504,-0.13001,0.17609,-0.078972,0.074075,-0.33407,0.25257,0.074038,-0.20655,-0.002454,0.35461,0.12505,0.2016,-0.053439,-0.41057,-0.053476,-0.05347,0.12507,0.3036,-0.23204,-0.20652,0.12506,0.099559,0.35462,-0.25757,-0.25753,0.25262,0.2271,-0.002479,0.30365,-0.30855,-0.30856,-0.181,-0.10447,-0.18107,0.048518,0.12508,0.30364,0.17612,-0.20647,-0.13001,0.17603,0.17604,0.048525,-0.35953,0.048549,0.02301,0.12507,0.074051,-0.20647,-0.23199,0.074026,0.023041,-0.1555,-0.25755,0.17607,-0.002461,-0.1555,0.30363,0.53317,0.53321,-0.38508,-0.61464,-0.51261,-0.20654,0.22707,0.22708,0.45664,0.20161,0.023054,-0.30853,-0.027969,0.17609,-0.28298,-0.48705,-0.10454,0.17601,0.099534,0.2526,0.12506,0.20158,0.099534,-0.027974,-0.053482,-0.181,0.099595,-0.38508,0.15059,0.27812,0.17609,-0.46161,-0.66561,-0.002521,0.30361,0.17612,0.32911,0.25259,0.15058,0.023035,0.02301,-0.15551,-0.13,-0.053464,-0.13001,-0.12998,0.023041,0.074069,-0.30857,-0.053495,0.12505,0.45664,0.38016,-0.20649,-0.51259,-0.10451,0.25259,-0.56364,-0.028005,0.76278,0.43116,-0.10447,-0.07899,-0.053464,0.25262,-0.20652,-0.25755,-0.10455,0.02301,-0.20654,-0.053482,-0.13001,-0.10448,0.099601,-0.002454,0.023047,0.12507,-0.053482,0.20158,0.27812,-0.10451,-0.027969,0.25257,0.17606,0.074051,-0.61464,-0.12999,0.2526,0.27812,-0.181,-0.20652,-0.10449,-0.41051,0.12506,0.25259,0.12504,0.074038,0.17607,-0.002448,-0.078972,-0.12999,-0.078996,-0.002448,0.12505,0.12504,0.2271,-0.30854,-0.48709,0.048549,0.38015,0.074069,-0.28303,-0.1045,0.12504,-0.02798,-0.053476,-0.053482,0.38015,-0.25752,-0.38511,0.15059,0.35464,0.66074,-0.56361,-0.23201,-0.12999,0.048531,-0.002503,-0.027993,0.023005,0.50769,-0.002448,-0.23203,-0.28308,-0.18101,-0.10445,-0.15554,0.023047,0.2271,0.15059,0.099559,0.3291,-0.002467,-0.20653,-0.1045,-0.078977,0.43114,0.074062,-0.20653,0.12505,-0.10447,-0.078984,-0.23207,-0.15552,0.048555,0.17609,0.15059,0.17607,-0.30853,-0.28304,0.12507,0.048561,-0.053495,0.22708,0.2016,-0.18101,-0.20653,-0.13001,0.048549,0.12505,0.40567,0.20159,-0.053446,-0.35958,-0.43609,-0.20653,-0.027962,0.15058,0.17609,0.048536,-0.078996,0.2781,0.17611,-0.25754,-0.28306,0.074051,-0.25751,-0.12999,-0.027962,0.43115,0.22712,0.17607,-0.28306,0.099534,-0.002461,0.099564,-0.28306,-0.20652,-0.078966,0.1506,0.12507,-0.053482,-0.41061,-0.002485,-0.1045,0.09957,0.048567,0.68622,0.50768,-0.20652,-0.79319,-0.20654,-0.13001,0.09957,0.20158,0.09957,0.45668,0.27815,-0.66567,-0.35957,-0.12999,-0.15549,0.023041,0.12505,0.35464,0.048536,-0.15552,-0.002443,-0.12999,0.099546,-0.23203,-0.41053,0.023035,0.27808,0.43115,0.38016,0.32911,-0.46164,-0.61464,-0.10449,-0.38503,-0.02795,0.55869,0.43117,0.17609,-0.30856,-0.48714,-0.18103,0.099564,0.48218,-0.10453,0.12508,-0.15548,-0.078984,-0.23203,0.099577,0.2526,0.20158,0.27812,-0.30855,-1.1248,-0.18101,0.71172,0.25262,-0.053464,0.074051,-0.027969,0.40565,0.32915,-0.48711,-0.18101,0.023035,0.17607,0.15059,-0.053482,-0.33405,-0.30856,-0.053476,0.30361,-0.027944,0.40566,0.12504,-0.20652,-0.283,-0.002461,-0.61467,0.40567,0.40566,0.074038,0.45666,0.58417,-0.053476,-1.0738,-0.28304,0.2526,-0.078996,-0.23204,-0.23204,-0.053476,0.2271,0.048567,-0.181,-0.12999,0.40565,0.2271,-0.002479,0.40564,0.25264,-0.027974,-0.30856,-0.079026,-0.33407,-0.078984,0.04858,0.22713,0.17609,-0.58913,-0.23204,-0.15553,-0.15553,0.15056,-0.053458,-0.30849,0.38011,-0.00251,-0.027998,0.25262,0.074124,-0.00243,0.12504,-0.028018,0.048536,0.32915,-0.4871,0.074062,-0.053513,-0.053495,0.32918,-0.28302,-0.84422,-0.13004,0.32914,0.048567,-0.181,0.12508,0.17609,0.048525,0.17608,0.074038,-0.002467,-0.079008,0.20159,-0.002461,0.12507,0.25259,0.048555,-0.4361,-0.51262,-0.078947,0.25265,0.38016,0.17606,-0.053525,-0.10449,-0.25753,0.25262,0.048531,-0.53813,-0.12999,-0.078947,0.12506,0.40561,0.25258,0.25259,-0.12998,-0.15548,-0.027993,0.12505,0.2271,0.55873,-0.43609,-0.23204,-0.15554,-0.30855,0.30362,-0.002467,-0.13,-0.053458,-0.027969,0.66074,-0.18106,-0.23205,-0.25752,-0.053446,-0.18099,-0.15552,-0.18105,0.09954,0.48216,0.30363,0.20159,0.35465,0.32912,-0.53812,-0.64015,-0.46159,-0.12999,-0.10449,0.45666,0.27808,0.12507,-0.10447,-0.46159,-0.25753,0.12509,0.099552,0.17608,-0.027969,-0.58913,0.099564,0.35465,0.074051,-0.13001,0.17604,-0.10449,-0.053495,-0.0535,0.35463,0.71176,0.27815,-0.18105,-0.58916,-0.28302,0.20163,-0.61465,-0.6657,0.22707,0.43115,0.32914,-0.027969,0.15057,0.048573,0.074081,-0.18103,0.15058,-0.1555,-0.18103,-0.002472,0.45666,0.91581,-0.38509,-0.81873,-0.51263,0.1761,0.17609,-0.002485,-0.53813,-0.53812,0.91586,0.43118,0.32912,0.048561,-0.20654,-0.053488,-0.078996,-0.25754,-0.12999,0.12505,-0.002472,-0.18101,0.17606,-0.002479,0.30361,0.22711,-0.38506,-0.2065,-0.053458,-0.23201,0.099564,0.023023,-0.05347,0.30363,-0.13005,-0.2066,0.099559,-0.30852,-0.1045,0.2526,-0.20653,0.38015,0.1506,0.66074,0.2271,-0.51262,-0.56363,-0.10449,-0.13,0.074038,0.32915,0.27812,-0.15553,-0.18101,-0.61463,-0.028011,0.17607,-0.078928,0.25262,0.17609,0.17607,0.15054,0.12505,0.074069,-0.2065,0.023035,-0.078996,0.048561,0.20158,-0.053476,-0.33404,-0.027956,-0.61462,0.023054,0.45668,0.17609,-0.13007,0.048494
-0.13001,0.02301,-0.18098,-0.20649,-0.053476,0.023023,0.15056,0.048549,0.048543,0.023029,-0.027969,-0.053464,-0.12998,-0.027993,0.048543,-0.053464,0.09957,-0.002485,-0.053482,0.023047,0.074069,-0.1045,-0.027993,-0.002479,0.023041,-0.027962,0.048561,-0.07899,0.023029,0.12507,0.074075,0.20159,-0.13002,-0.15551,-0.078984,-0.12998,-0.002485,0.12505,0.15057,-0.10449,-0.053476,0.074044,0.048561,0.023059,-0.053488,-0.0535,-0.02798,0.048543,-0.027993,-0.027969,-0.078972,-0.053476,-0.027987,0.023047,-0.10447,-0.12999,0.099546,0.074057,0.023035,0.048536,0.099564,-0.002467,-0.053495,-0.002467,-0.002454,-0.053482,0.023023,0.023041,-0.027956,0.048549,-0.13,0.023059,0.023035,0.15056,0.15059,-0.13001,-0.10449,-0.002454,-0.002472,0.09957,-0.002454,-0.15552,-0.053482,-0.12999,0.074038,0.048549,-0.002448,-0.053476,0.023041,-0.10447,-0.053495,-0.078984,-0.027956,-0.053482,0.048543,-0.002454,-0.002467,-0.027969,-0.078972,-0.078984,0.048543,-0.027962,-0.10448,0.023041,0.023041,0.074038,0.099546,-0.027974,-0.1555,-0.13,-0.07899,-0.027969,0.023059,-0.027956,0.023029,-0.002479,0.074038,0.023035,0.074057,-0.078972,0.048561,-0.078984,-0.02798,-0.10449,-0.027962,-0.027974,-0.053482,0.074038,-0.002467,-0.002448,-0.078972,-0.10449,-0.027969,-0.002448,0.074044,-0.027993,0.023023,-0.027956,0.09957,-0.002467,-0.027969,-0.053458,-0.002467,-0.078996,0.023035,0.074051,0.15055,0.023029,-0.10449,-0.002479,-0.078972,-0.02795,0.048543,-0.05347,0.048567,0.074044,0.048543,0.074044,0.023023,-0.05347,-0.027974,-0.079002,-0.002467,0.023047,0.023017,0.074038,-0.027969,0.048555,-0.053482,0.048531,-0.002467,-0.027969,0.09957,-0.002461,0.22708,0.048525,-0.20652,-0.07899,-0.1045,-0.002485,0.12505,0.099552,0.074069,-0.027956,0.023047,-0.053476,-0.002467,-0.002467,0.048555,-0.078977,-0.12999,-0.1045,0.048531,0.074038,0.074062,0.048555,-0.053464,-0.027974,-0.1045,0.023023,0.099546,0.048555,0.048555,-0.1045,-0.027974,-0.053482,0.17607,0.17609,-0.10448,-0.12999,-0.12999,-0.07899,-0.053488,0.099546,0.12505,0.023047,0.09957,0.023041,-0.002472,0.074038,-0.027987,-0.10449,-0.002467,-0.002454,0.023059,0.048549,0.099546,-0.002479,-0.027969,-0.002467,-0.027956,-0.05347,-0.002485,0.048549,-0.002454,0.09957,0.048555,0.074044,-0.10451,-0.078984,-0.002454,-0.002461,-0.05347,-0.002472,0.023047,0.023041,-0.002467,-0.002467,0.074038,0.023023,0.023041,-0.053451,-0.10449,-0.07899,-0.13,-0.027969,0.023059,-0.027962,-0.002472,0.023023,-0.027993,0.048543,-0.027974,0.048549,0.074038,-0.002467,0.074044,-0.078972,-0.002479,0.048536,-0.078984,-0.10447,-0.002472,0.074033,-0.053476,-0.002454,-0.053476,-0.027993,-0.078984,-0.002443,0.048561,-0.078984,-0.002479,0.074057,-0.10447,-0.07899,0.099546,0.048549,-0.002454,-0.002467,-0.10449,-0.002472,0.074075,0.074062,0.048531,0.074044,0.023035,-0.1045,0.048525,0.023047,-0.078972,-0.053482,0.12505,0.074057,-0.002454,0.023041,0.099546,-0.002461,-0.053464,-0.053476,0.048531,-0.053476,-0.1555,0.048549,-0.002461,0.048536,0.048549,0.048543,-0.1045,0.09954,0.023047,-0.02795,-0.027956,-0.078984,0.074038,0.023029,0.099559,-0.078972,-0.10448,-0.027974,-0.10449,0.023023,0.074038,0.074069,-0.078972,-0.07899,0.048536,0.12506,-0.12999,0.074051,-0.002479,-0.027969,0.09957,-0.027974,-0.0535,-0.002467,0.023047,-0.027969,-0.002479,-0.10449,-0.25752,0.099564,0.20158,0.22709,0.12507,-0.10448,-0.25754,-0.0535,-0.027974,-0.002461,0.099546,0.074057,0.099564,0.023035,-0.12999,-0.002467,0.074038,0.048543,-0.05347,-0.002467,-0.002467,-0.078977,-0.078984,0.023047,-0.002454,-0.027993,-0.002467,-0.078977,-0.078996,-0.002467,0.023054,-0.07899,0.023041,-0.002448,0.023047,-0.002485,-0.002467,-0.12999,-0.002479,0.099552,-0.027962,0.09957,-0.053476,-0.10451,0.074057,0.023035,-0.10449,-0.13001,-0.002491,0.023035,-0.002467,0.048543,0.023047,0.048573,-0.053476,0.023023,-0.002461,0.023054,0.023047,0.074038,-0.10449,-0.12999,-0.053482,0.048531,-0.05347,-0.002467,0.023023,-0.002454,0.023047,-0.078984,0.023054,-0.027974,-0.027987,0.048561,0.023035,-0.002472,0.099564,0.023023,-0.10448,-0.078984,-0.10449,-0.078972,0.099546,0.12507,-0.002467,0.048536,-0.002467,-0.078977,-0.1045,0.074057,0.074069,0.15057,0.023047,-0.12999,-0.13001,-0.079008,-0.002467,0.074075,0.099546,0.023041,-0.15549,-0.1045,-0.18101,0.023059,0.074057,0.048531,-0.027969,-0.027962,-0.053482,-0.027987,-0.002467,-0.027956,-0.078972,0.023023,0.023035,0.048555,-0.078977,-0.053482,-0.05347,-0.027962,-0.027969,0.048536,-0.10448,-0.02798,0.074062,-0.078972,0.023023,0.048549,0.023047,-0.002472,-0.027974,-0.078977,-0.053488,-0.027969,-0.027956,-0.053482,-0.027969,-0.10448,0.074044,0.074069,-0.15551,0.023041,-0.002472,0.074038,-0.027962,0.048536,0.023054,-0.13,0.099559,0.048543,0.099564,-0.053464,-0.002485,0.048543,-0.078972,0.048536,0.023054,-0.053482,0.074038,-0.027962,-0.027993,0.074069,-0.078984,0.048549,0.023029,-0.002467,-0.05347,-0.002479,0.023047,0.12507,0.023023,0.023035,-0.002448,-0.10449,0.099546,-0.027956,0.023017,-0.002467,0.099564,-0.002485,-0.053458,-0.027974,-0.002467,0.023041,-0.002467,0.048531,0.074057,-0.002467,-0.027987,-0.053464,0.023023,0.023035,-0.027962,-0.027987,0.12507,-0.078972,-0.053488,0.074038,-0.078972,-0.07899,0.048536,-0.027962,-0.078984,-0.053482,0.023041,-0.05347,-0.07899,0.12505,0.023054,0.023041,0.023023,0.023047,-0.053464,-0.1045,0.074038,0.048561,-0.053482,0.17607,-0.078972,-0.13,-0.053476,-0.12999,-0.079002,0.099564,0.023035,0.048536,-0.027956,-0.002485,-0.02795,-0.002479,0.048555,-0.078972,-0.002485,0.048561,-0.002467,0.023029,-0.027956,-0.002485,0.023059,0.048536,-0.027969,-0.10448,-0.10449,-0.002461,-0.053464,-0.002472,0.048536,0.048555,-0.027956,0.048536,0.12508,0.074062,-0.15551,0.074044,0.023047,-0.1045,-0.079008,-0.053482,-0.027956,-0.027987,-0.027969,0.023072,0.048543,0.023023,-0.002467,-0.002443,0.023041,0.074038,-0.027969,-0.027974,-0.079008,-0.027962,-0.053476,-0.002461,-0.078972,0.048531,0.074051,0.023054,0.048543,0.048536,0.048549,-0.002467,0.074044,0.048549,-0.078972,0.023035,-0.053495,-0.027969,0.048561,-0.053482,0.074038,-0.002467,-0.027962,-0.002454,0.048531,-0.078996,0.099588,0.074062,-0.002467,0.023047,-0.002479,0.048536,0.12505,0.02301,-0.38506,-0.10447,-0.02798,0.40566,-0.33401,-0.38506,0.02298,-0.028018,0.15052,0.32912,-0.02795,0.58424,1.0179,-0.027895,-1.2268,-0.58922,1.3238,0.12514,-1.1758,-1.2268,0.30359,2.2932,1.2474,-1.4309,-0.92074,0.048653,0.55858,-0.74233,-2.4001,-2.145,2.829,4.793,1.0943,1.2217,-1.4567,-5.6135,-1.6347,1.604,0.20172,1.3747,-3.2674,-1.3544,1.0177,1.5534,4.308,3.6707,4.4356,-3.8534,-2.4762,0.27806,0.048293,-2.1963,-2.3745,-0.33431,-0.9462,-1.3033,-1.0229,4.8433,5.7886,1.2218,-5.5887,-5.4355,-3.4711,1.2981,2.3949,-1.1497,1.9359,2.4459,-0.76748,0.023457,2.5739,2.0891,-1.686,-1.2777,-0.94632,-0.56384,-1.2015,-1.6351,-3.063,2.7013,2.8798,2.5227,-0.00232,-0.6148,-5.1033,-1.4822,0.55842,0.32907,1.2727,1.5532,-2.3741,1.0178,0.99238,0.099779,0.35453,1.9612,-0.38504,0.22713,-2.0682,1.5785,0.737,-2.4253,-1.7371,-2.7314,4.1552,5.2522,-2.145,-2.8847,-1.6606,-0.25775,-0.74213,0.099485,0.68616,0.63512,-0.53815,0.91583,2.6759,3.084,-1.6349,-1.5585,-0.86974,-0.25761,0.22701,0.073984,0.25257,-2.5786,-0.61463,2.3952,5.788,0.023072,-2.4767,-2.9867,-0.07943,-3.2416,-0.74226,2.165,-1.7876,1.3748,-0.46129,2.4206,0.76283,1.783,-0.61469,-1.3797,0.27805,-0.2321,-0.027987,0.074062,-0.25752,-1.3797,0.022943,0.35457,-0.38509,-0.20656,1.4005,2.8289,-0.51265,-1.0738,-2.3234,-1.5584,0.12494,0.86465,1.7574,-0.61471,-0.02798,1.6302,2.3188,-0.33404,-2.4767,-2.2216,-1.1247,1.0177,0.22708,0.45666,0.73726,0.22706,1.0689,0.12505,-0.76759,-0.41042,1.1197,0.048525,-0.25767,-1.4562,-1.5837,1.1196,0.37996,0.12507,1.0942,0.66077,0.12514,-1.0992,-1.1757,-0.48702,0.074124,1.426,-0.13004,-0.51265,-0.74216,1.5024,-0.10454,1.2472,-1.405,-0.15553,-0.079235,-0.35956,1.4515,2.7524,-2.0175,-1.2014,0.022974,-0.002448,-1.0481,0.50762,0.023078,0.45669,1.2219,-0.053464,0.32915,-0.25757,-0.58916,-1.2778,-0.76769,-0.30855,0.43116,1.0433,1.5535,0.89029,0.22712,-0.89522,-1.2268,-0.51264,-0.079002,0.66067,0.15062,-0.69116,-0.15551,0.30356,-0.74218,-0.2321,0.27811,2.5994,1.1199,-1.1248,-0.51265,-0.94623,-0.61467,-0.181,0.35462,0.27808,-0.30853,0.76271,-0.20657,-0.76771,1.8597,0.48224,-0.30854,-1.0483,-1.0228,-0.76763,-0.23201,0.35462,0.58413,-0.078886,1.5022,-1.9151,0.89014,0.71163,0.2526,0.099503,-0.13002,0.48207,-0.8696,-1.5326,0.27802,0.15052,0.023005,0.32907,1.5024,0.35465,-1.2268,-1.4308,-0.10455,0.89026,-1.3285,0.45655,0.35462,0.022986,0.099552,0.3546,0.43117,0.6352,-1.0738,0.66075,-0.18101,-0.43606,-0.5636,-0.46162,-0.18104,1.1709,0.20159,-0.25753,-0.43608,-0.25758,-0.10452,0.023047,-0.69111,0.86481,0.83926,0.074111,-0.002497,-0.25755,0.22701,-0.94626,0.38014,0.68628,-0.53807,-0.33407,-0.079045,-0.13002,0.22712,0.15058,-0.18106,0.32915,0.25264,-0.51257,-0.41054,0.15058,0.17607,0.15056,-0.053616,-0.23207,0.023237,0.15057,-0.23203,0.074062,0.45669,-0.33405,-0.66571,-0.053555,0.53317,-0.35952,-0.283,-0.078972,0.45667,0.86481,0.17608,-0.69118,0.20158,0.99232,0.58422,-1.2268,-0.86971,-0.58913,-0.23205,0.22705,0.17604,-0.002436,0.25261,0.32916,0.12507,-0.002418,0.22706,-0.13005,-0.12996,-0.23197,0.60973,-0.4616,-0.92074,0.20155,1.528,-0.10449,-0.81867,-0.56364,-0.18103,0.30355,-0.028036,-0.07899,0.25263,0.074081,0.04861,-0.23203,-0.69114,1.1198,0.53319,0.73722,0.30368,-0.51257,-0.97175,-0.15557,-0.13002,0.22705,-0.18111,-0.46162,0.023072,0.32917,0.023072,-0.15547,0.86482,1.0178,-0.46162,-0.43609,-0.15553,-0.46162,-0.4871,-0.002467,0.25267,0.3291,0.048549,0.94125,0.15052,0.40569,-0.56362,-0.64012,-0.25751,0.43114,-0.002467,-0.13002,-0.18103,-0.15553,0.20159,0.074087,0.048536,1.2219,-0.13003,-0.51257,-0.64015,-1.0993,-0.4361,0.83927,0.27807,0.73721,0.048549,-0.18096,-0.28306,-0.002448,-0.35951,-0.078966,0.27807,0.45662,0.22712,-0.48714,-0.43615,-0.3086,0.58422,0.099601,0.43118,0.48219,-1.788,-0.30856,0.73723,0.48221,-0.5636,-0.30856,0.17603,0.58417,0.048549,-0.13002,-0.1555,0.099552,0.22711,0.2016,-0.33404,0.048555,-0.053439,-0.94622,-0.18108,2.1401,2.0382,-1.0992,-1.3543,-1.1248,-0.7167,0.074013,0.074033,-0.10444,0.32914,0.17607,0.2526,0.35461,0.17602,-0.027944,-0.028023,0.17612,0.27816,1.0434,0.048561,-0.10449,-1.0228,-0.94621,-0.38506,-0.078977,-0.002472,-0.28308,-0.053513,0.12506,0.58418,-0.4871,-0.23197,0.71173,2.5993,-0.25756,-0.35957,-0.28306,0.099583,-0.66566,-0.84422,-0.283,0.76276,-0.25753,-0.92074,0.17604,-0.05347,0.099583,0.17609,0.5587,0.86478,0.25262,-1.1503,-0.33406,0.76273,2.2422,0.22709,-1.6859,-1.6094,-0.58918,-0.33407,-0.53812,-0.48698,0.40563,1.1453,0.55868,0.5842,-0.30851,0.27802,0.5841,-0.027969,-0.48703,-0.66564,-0.25753,0.38016,1.2474,0.68626,-0.35956,-0.30858,-1.1248,-1.0483,-0.7167,0.20159,0.20161,1.2219,0.43115,0.58425,-0.053476,-0.97177,-0.41056,1.1709,0.30361,-0.15551,0.099626,-0.15554,-0.053525,-0.48713,-0.4616,-0.10452,0.32911,-0.027956,0.12509,0.20158,-0.002485,-0.05347,-0.33403,0.25259,0.50771,0.71177,0.09957,0.55866,-0.61465,-0.51265,-0.35957,-1.1248,-0.15553,0.27811,0.78824,0.022998,-0.02798,-0.053476,-0.28298,-0.053476,0.15058,0.48216,0.12506,0.023054,0.12509,-0.71664,-0.33404,-0.053506,0.02301,-0.053464,0.4312,0.30363,0.3036,-0.079026,0.20158,-0.53812,-0.61463,-0.078977,0.35462,-0.35957,0.40569,0.048573,-0.58914,0.12504,0.53314,0.099588,-0.38506,0.3546,0.20159,-0.12998,-0.10443,0.32915,0.048531,-0.30856,-0.61461,0.38014,0.81375,0.25257,-0.18105,-0.8187,-0.23202,0.27814,-0.15548,-0.10449,-0.48711,0.20157,0.12507,-0.1045,0.35461,-0.027987,0.30366,0.074087,0.43116,-0.002479,-0.5381,0.20158,-0.028005,0.45664,-0.002454,-0.23198,-0.71666,-0.028011,0.40563,0.5587,-0.35956,-0.30855,-0.41061,0.099559,0.15064,0.68625,-0.5381,-0.41063,0.15054,-0.56367,-0.51262,0.048549,0.96685,1.4515,0.73726,-0.48712,-0.48711,-0.4616,-0.64015,-0.43608,-0.07899,0.09957,0.1251,0.40564,0.25258,0.15054,0.25257,-0.20654,-0.28303,-0.33404,-0.38505,-0.12999,0.94132,1.2474,-0.18099,-1.7625,-0.35959,0.50765,0.25259,-0.35957,-0.20653,0.35464,0.074069,-0.28302,0.074069,-0.027974,0.40564,0.30361,-0.13004,-0.053495,-0.15552,-0.28303,0.20162,0.60974,0.30367,-0.79315,-0.74216,-0.18107,0.048482,0.20157,0.25262,-0.61466,-0.61468,0.5587,0.0741,0.35466,0.099588,0.38015,0.40564,0.22712,-0.28302,-0.43614,-0.18105,0.45669,-0.053482,-0.53815,-0.33409,-0.002418,-0.027956,0.15056,-0.4616,-0.1045,0.12506,0.78827,0.45667,-0.51262,-0.20653,-0.15552,0.099546,0.22708,0.27812,-0.002454,-0.58912,-0.053488,-0.027969,-0.41055,0.68623,0.94132,0.45666,-0.56366,-0.41062,-0.28305,0.55869,-0.002472,-0.58914,-0.028018,-0.13002,0.12515,-0.002418,-0.078996,-0.027987,0.25259,0.35459,0.023017,-0.1045,0.55872,0.1506,-0.53812,-0.7932,0.60973,0.40565,0.09957,-0.079002,-0.33409,-0.58916,0.22709,0.023054,0.12508,0.48219,0.023054,-0.18103,-0.053495,-0.15551,-0.05347,0.32912,-0.1045,-0.23205,-0.002436,0.074075,0.15059,0.45667,-0.15548,-0.53812,-0.079008,0.12505,0.83926,-0.23202,-0.43603,-0.079002,-0.002516,-0.10452,0.048536,-0.05347,-0.078972,0.099559,0.48221,-0.46155,-0.053482,0.099546,0.099552,-0.002479,-0.20654,-0.002448,-0.23203,0.32912,0.45664,-0.41055,-0.33401,0.27811,0.022998,0.48216,-0.25754,-0.002467,-0.053495,0.22709,-0.232,-0.12999,0.023023,-0.20652,0.32911,0.48218,-0.18101,0.048549,0.023047,0.22713,-0.15552,0.43115,0.17607,-0.51265,-0.4106,-0.46161,-0.23202,0.20161,0.50769,0.15059,-0.25755,-0.0535,0.074062,0.27814,0.27813,0.048561,-0.25756,-0.18103,-0.35956,0.074075,0.55869,0.43115,-0.86975,-0.13002,0.30364,0.55873,0.09954,-0.35951,-0.61462,-0.43614,0.27806,-0.028005,-0.13001,0.074093,-0.15545,0.27814,0.43115,0.45666,-0.053476,-0.28308,-0.078996,-0.079008,-0.10449,-0.15549,-0.027956,0.12506,-0.027962,-0.30854,0.68627,0.45664,-0.53815,-0.46164,-0.23206,-0.53811,-0.20653,0.2526,0.32913,-0.053464,0.12509,0.22711,-0.027993,0.45667,0.1251,-0.12998,-0.1045,-0.23204,-0.30858,0.53315,0.55868,0.66069,-0.181,-1.4563,-0.53807,-0.56366,0.099503,0.099491,0.58419,0.20161,0.1761,0.17609,-0.053488,-0.1045,0.38016,-0.51261,-0.33403,0.83932,0.15059,-0.48712,0.048555,0.20158,0.12504,-0.13002,-0.15549,0.17607,-0.053506,0.099534,-0.002467,0.22712,-0.23203,-0.38509,-0.48713,0.12507,1.0178,1.426,-0.53812,-1.2013,-0.58914,-0.33407,-0.002436,0.15055,0.40565,0.43117,0.27807,-0.35953,0.074044,0.22707,0.30361,0.32912,0.22712,-0.30855,-0.33406,-0.33404,-0.1045,-0.053482,-0.15551,-0.002448,-0.20652,0.35465,0.43118,0.25261,-0.28305,-0.43609,0.3036,0.3036,0.25258,-0.43608,-0.33406,-0.25757,-0.10451,-0.027944,0.38014,-0.053488,-0.38508,0.099564,0.30361,0.27812,0.12507,-0.23203,-0.283,0.45668,0.81375,0.35458,-0.46157,-0.28307,-0.079026,-0.41059,-0.25751,-0.12997,0.17611,-0.0535,0.27808,-0.1045,0.2781,-0.1555,0.38016,0.20159,0.048531,0.048561,-0.66565,-0.12995,0.2271,0.40564,-0.10449,0.17604,0.17604,0.30362,0.17608,-0.078996,-0.25753,-0.69115,-0.46157,0.2526,-0.15552,-0.25749,-0.25751,0.2781,0.20155,0.2271,-0.15548,-0.15551,0.074038,0.27811,-0.15551,0.074051,0.2526,0.023035,0.023029,-0.53807,-0.15546,-0.002497,0.50768,0.099632,-0.64013,0.12501,-0.2321,-0.18102,0.20157,0.048536,0.048567,0.048561,0.023035,0.099588,-0.078977,-0.078966,0.048543,0.023035,0.17607,-0.053464,0.074044,0.023041,-0.027962,-0.07899,0.12505,0.12507,-0.078984,-0.10451,0.20158,-0.25755,-0.66568,0.81371,0.45667,0.40572,0.17622,-0.81855,-0.92064,-0.35968,-0.10464,0.048433,0.38003,0.55862,0.12507,-0.20647,0.12511,0.02309,-0.3595,0.32918,0.4822,-0.30853,-0.027938,-0.23203,-0.0535,-0.13002,-0.02798,0.09954,0.17607,0.023041,-0.002485,-0.027998,0.048536,-0.027956,0.023029,-0.078984,-0.10449,-0.41059,-0.053506,0.5332,0.83931,-0.002461,-0.51261,-0.56359,-0.33402,-0.56362,-0.002479,0.074038,0.22708,-0.12998,-0.053531,0.099577,0.074013,0.15051,0.40564,0.25262,-0.078966,-0.078984,-0.1045,0.1506,-0.56362,0.38017,0.12509,-0.027938,-0.15549,-0.25754,-0.35959,-0.30858,0.023005,-0.053495,0.17606,0.2271,0.1761,0.30364,-0.002472,0.074075,-0.10452,0.02301,-0.18099,-0.23203,0.048561,0.50768,0.048531,0.2526,0.048543,-0.38508,0.074069,0.04858,0.17609,-0.30856,0.32911,-0.18103,-0.027974,0.12507,-0.43607,-0.53805,0.17604,-0.053531,0.12507,0.25262,0.83928,0.048543,-0.002485,-0.20655,-0.20652,-0.25753,-0.15552,-0.25752,0.66074,0.38014,-0.078959,-0.5636,-0.027987,0.17604,0.048536,0.099564,-0.4106,-0.89522,0.15059,0.78826,0.43112,-0.23205,-0.027969,-0.10449,0.17609,-0.002436,0.12506,-0.18102,0.074057,0.074051,0.22708,-0.027987,-0.053464,-0.15549,-0.18101,-0.25756,0.30361,0.50765,0.68622,-0.61457,-0.53814,-0.028005,-0.13004,-0.23204,0.17609,-0.25753,0.22711,0.71176,0.50774,0.35466,-0.51264,-1.0483,-0.15549,0.60968,0.15054,0.20158,0.023047,-0.20653,-0.28305,0.023065,0.32916,0.1506,-0.20652,-0.15554,-0.18102,0.2526,-0.20653,-0.23203,-0.002454,-0.027962,0.048555,0.17608,-0.13,-0.10447,0.22708,0.15056,-0.12997,-0.18103,0.73726,0.32917,-0.20656,0.12504,-0.33409,-0.51261,-0.30858,-0.079008,0.099588,-0.51257,0.1251,0.35465,0.40565,0.60972,-0.30856,-0.28303,-0.053476,-0.38509,0.2781,0.35464,0.55868,-0.002472,-0.002485,-0.51261,-0.66563,-0.43607,-0.027974,0.45664,0.96683,0.35464,-0.28306,-0.23204,-0.002472,-0.20652,-0.66565,-0.33404,0.22713,-0.20649,0.53317,0.89027,0.35464,-0.25759,0.02309,-0.10451,-0.18101,-0.13001,-0.33409,-0.30859,0.023047,-0.002454,-0.10447,0.023072,0.1761,0.17607,0.17607,0.12509,-0.027956,-0.43608,-0.28308,-0.23206,0.20155,0.17607,-0.15553,-0.079008,0.25259,-0.28303,-0.027901,0.32917,0.2781,0.048543,-0.38508,-0.18108,0.074062,0.40566,0.60971,-0.38511,-0.74215,-0.053482,0.048536,0.2016,0.074081,0.048536,-0.18101,0.17611,0.12506,0.074038,0.099559,-0.41058,-0.079002,0.15059,0.074051,-0.94624,0.048561,0.58421,0.68624,-0.23201,-0.002448,0.22707,-0.23205,-0.079021,-0.28303,-0.027987,-0.002491,-0.20655,-0.51262,0.15059,0.50777,1.1964,0.12506,-0.56362,-0.74218,-0.51262,-0.13001,-0.027962,0.074069,0.023047,0.048543,0.023005,0.38011,0.43116,0.12512,-0.6146,-0.15549,0.22706,0.25258,0.023059,0.40568,-0.18104,-0.3851,-0.56362,-0.15554,0.12504,-0.4106,-0.15549,0.48219,0.35466,1.375,-0.7677,-0.20655,-0.25754,-0.30857,0.048555,0.048622,0.22711,0.66068,0.022992,-0.30855,-0.23204,-0.23205,-0.232,0.27808,0.25262,0.12505,-0.28306,0.1506,-0.30853,0.048561,-0.078984,0.09954,0.099559,-0.02795,0.023041,-0.12997,0.099546,-0.30858,0.50766,0.17607,0.38013,-0.07899,-0.23202,-0.23201,-0.002467,0.25262,-0.20652,-0.13001,0.074051,0.12508,-0.13004,-0.79319,0.20159,0.50768,0.25257,-0.07899,-0.053451,0.048555,0.099564,-0.078977,0.15057,-0.23204,-0.25753,-0.2065,0.099613,0.63523,1.2984,0.048536,-0.79324,-0.56365,-0.61467,0.023017,0.30362,0.63522,-0.10449,-0.20652,-0.35954,0.12509,0.048561,-0.12999,0.15058,0.32912,0.35466,0.099577,-0.20655,-0.25756,-0.33402,0.17605,-0.58917,-0.078972,0.43117,1.0689,0.2016,-0.66567,-0.69117,-0.43607,-0.30851,0.048536,0.40565,0.38014,0.099552,-0.078977,-0.10449,-0.02798,-0.027962,0.074051,-0.002472,0.30362,0.40565,-1.1758,-0.30854,0.78827,0.76277,0.20161,-0.20655,-0.43606,-0.35961,-0.30859,-0.46164,-0.13,0.048573,0.89029,0.09957,-0.181,-0.20648,-0.10447,-0.23199,0.12503,0.12502,-0.13003,0.2781,0.2016,0.30363,-0.30856,0.048536,-0.02798,0.023054,-0.20649,-0.25753,-0.002454,0.55869,-0.079008,-0.81869,-0.15551,0.12509,0.17609,0.30362,0.12504,0.48213,0.17603,-0.027987,-0.078984,-0.25752,-0.10451,-0.053464,0.3802,0.2016,-0.027969,-0.33405,-0.33409,-0.3851,-0.28305,-0.002454,0.22709,-0.1045,0.09957,0.99235,0.45667,-0.61465,0.099564,-0.027987,-0.002461,-0.58915,-0.38506,0.1761,0.099588,-0.15548,-0.053488,0.22708,-0.18101,-0.15553,-0.079002,-0.053476,0.27812,0.2271,0.25261,-0.027993,-0.13002,-0.35951,-0.15551,-0.15548,0.58416,0.68624,-0.48711,-0.79322,-0.027969,0.048543,-0.23203,0.099583,0.45665,0.15059,-0.13001,-0.30854,0.048585,-0.053451,0.27809,0.099546,-0.10454,-0.181,-0.12999,0.023035,0.32915,0.09957,-0.028011,-0.30857,0.074044,0.048561,0.48218,-0.078984,-0.13001,-0.5126,-0.23203,0.04858,0.45667,-0.43607,-0.18105,0.83926,1.2984,-0.30856,-0.69116,-0.23207,-0.079002,0.12509,0.22709,-0.027969,-0.078977,-0.30854,0.17607,0.40566,-0.078984,-0.23204,-0.18103,-0.13002,-0.078984,0.099583,-0.027962,0.12507,-0.28307,0.58421,0.35464,0.60971,-0.18101,-0.46159,-0.64003,-0.35961,-0.53817,0.15054,0.4311,0.45664,-0.002467,0.25258,0.27811,0.048592,-0.18097,-0.25753,-0.078959,-0.48712,-0.28306,0.074062,0.1761,0.30359,-0.28308,-0.078972,0.40566,0.40566,-0.33407,0.099564,0.17609,0.099552,-0.13001,-0.027993,-0.2575,-0.74221,0.43111,0.58419,0.71173,-0.078996,-0.30854,0.1251,0.2271,-0.28302,-0.58909,-0.41059,-0.079021,0.023035,0.45667,0.15057,0.023035,0.09954,0.17606,-0.027956,0.12509,-0.33406,0.12506,0.048555,-0.35958,0.27809,0.81378,0.20164,-0.64012,-0.30851,-0.053476,0.12501,-0.078972,0.32907,0.30356,-0.61465,-0.66568,-0.18101,0.15059,0.17611,0.1761,0.12508,0.17608,0.35463,0.22711,0.048549,-0.10449,-0.18104,0.15057,-0.078966,0.099559,-0.078984,-0.41061,-0.28307,-0.027962,0.27812,0.60968,0.40564,-0.43613,-0.43607,-0.15548,0.12509,-0.28303,-0.15549,-0.30847,0.60968,0.86471,-0.20657,-0.15553,0.074038,-0.053488,0.099564,0.12509,-0.12999,-0.30855,-0.13001,0.30364,0.38018,0.48219,-0.027974,-0.3596,-0.002479,-0.4361,-0.23202,0.12509,0.45666,-0.20655,-0.92078,0.32915,0.76279,0.2526,-0.25754,0.048531,0.12506,-0.15551,-0.30854,-0.20648,0.48216,-0.25754,0.09957,0.099595,-0.15551,-0.028023,-0.002491,-0.33405,0.048592,-0.027969,0.38013,-0.002467,0.048555,-0.20652,0.048567,0.20157,0.074051,-0.10451,-0.30855,0.048555,0.22711,-0.41058,0.099552,0.22707,0.53315,0.22707,-0.46161,-0.46161,-0.078972,-0.078972,0.6607,0.73724,-0.53806,-0.38507,-0.23204,0.12502,0.22706,0.099534,-0.07899,0.048585,0.15061,0.38016,0.43115,0.30361,-0.66565,-1.0483,-0.002454,0.30362,0.12505,-0.15553,0.048536,-0.10451,-0.027969,-0.078972,-0.30853,0.48221,0.30363,0.68622,0.25261,-0.053464,-0.35959,-0.3851,-0.28305,-0.18101,-0.078984,-0.10449,0.35464,0.2781,0.50769,0.25258,-0.41059,-0.33405,-0.28304,-0.078972,0.099559,-0.053513,0.074057,0.32912,0.5587,-0.28302,-0.28303,-0.20655,0.12507,0.2526,-0.02798,0.5332,-0.58913,-0.58914,0.023041,0.074062,0.15059,0.40565,-0.053464,0.17609,-0.18106,-0.13,-0.15549,-0.69113,0.023072
-0.078984,-0.10448,-0.002454,0.023047,-0.1045,-0.078977,-0.027956,0.099559,0.074044,-0.027969,-0.12999,-0.10449,-0.002467,0.099564,0.074038,-0.002467,-0.12999,-0.15549,-0.027969,-0.027969,0.12507,0.17606,0.074033,0.048531,-0.053482,-0.053464,-0.078966,0.099564,0.048543,0.023023,0.023035,0.074057,0.048543,-0.002461,-0.002479,-0.002472,-0.078972,0.048549,0.074044,-0.07899,0.023041,-0.053464,-0.053476,0.048549,0.074051,-0.078972,-0.053482,0.074038,-0.002467,-0.078972,0.074038,0.099564,-0.078972,-0.10449,0.074033,0.048555,-0.12999,0.023035,0.099546,-0.12999,0.023041,0.074038,-0.078972,0.17607,-0.181,0.048549,0.048543,0.023035,0.099546,-0.053464,0.074057,-0.027969,-0.027974,0.099559,-0.078977,-0.002467,0.048549,-0.10447,-0.027987,0.074051,-0.05347,-0.02798,0.048531,0.074069,-0.002467,-0.07899,0.048531,0.099559,-0.078966,-0.027974,0.048531,0.048549,-0.002448,0.074057,0.023047,-0.002485,-0.078984,-0.027974,-0.02798,0.074038,0.074062,-0.10448,0.023035,0.099546,0.048549,-0.027974,0.048525,0.048543,0.048555,0.023054,0.074051,0.023023,-0.027969,0.023059,0.023029,0.048543,-0.027987,-0.078977,0.074051,0.023047,0.074038,-0.1045,-0.053476,0.074057,0.099552,0.048531,-0.07899,-0.078972,0.12507,-0.053482,-0.002479,0.074057,-0.002454,-0.002467,0.099546,0.074057,-0.13,0.099546,0.048549,-0.078977,0.099546,0.12507,-0.078977,-0.002472,0.074038,0.023047,-0.002448,0.074044,0.023035,-0.002454,-0.10449,0.074044,0.074057,-0.05347,-0.053482,0.074038,-0.002461,-0.053464,0.023029,0.074062,-0.078972,-0.027974,0.048549,0.023054,-0.13001,-0.027969,-0.078972,0.048549,0.099546,-0.07899,-0.002454,0.023047,0.048531,0.023041,-0.002472,-0.10448,0.048555,0.12505,-0.002472,-0.053482,-0.078972,0.074051,-0.027974,-0.002485,-0.05347,0.023054,-0.002472,0.12505,-0.053476,-0.078972,0.048549,0.048549,0.048531,-0.13,-0.027974,-0.002454,0.099559,0.023035,-0.002485,0.099559,-0.078972,-0.12999,-0.027974,0.048567,-0.027974,-0.002479,-0.053482,-0.05347,0.074057,-0.002467,-0.002485,-0.053482,-0.05347,-0.002448,-0.027969,0.023023,-0.002467,0.023047,-0.027962,-0.027969,0.023023,-0.002467,-0.002454,-0.027969,-0.002485,-0.07899,-0.078977,0.048543,-0.002472,-0.13,-0.027956,0.099564,0.074038,0.023035,-0.027974,-0.05347,-0.002479,-0.027969,0.023054,-0.002467,0.048531,-0.002467,-0.027962,0.074057,-0.053495,-0.07899,0.023059,0.074057,0.074038,-0.053482,-0.053488,-0.078972,-0.027962,-0.027974,0.048549,-0.053482,-0.10448,-0.053488,0.099546,0.074044,-0.002467,-0.10449,-0.027956,0.12507,0.023041,0.023023,0.048543,-0.15549,0.023035,-0.002479,-0.053476,-0.027969,-0.10448,-0.053482,-0.027974,-0.078977,-0.053482,0.12505,-0.027969,-0.10449,0.048536,0.099564,-0.027969,0.15057,0.15057,-0.07899,-0.15551,-0.002485,0.023047,-0.027969,0.048531,0.099559,-0.10449,-0.079002,-0.027974,-0.027962,0.048555,-0.002485,-0.10449,-0.053482,0.048567,0.2271,0.048525,0.17607,0.22711,-0.23202,-0.28307,-0.20655,-0.027969,-0.078972,0.048543,0.099564,-0.002454,-0.12999,0.074044,0.048549,-0.05347,-0.002472,0.023023,-0.002454,-0.002467,0.12505,0.048543,0.048573,-0.053482,-0.027987,-0.027969,0.12507,0.023041,0.048531,-0.002467,-0.12999,-0.053482,0.023029,-0.002467,0.074069,0.12507,0.099564,-0.002454,-0.1555,-0.25754,-0.078996,0.12509,0.048555,0.048536,-0.13,-0.002467,0.023023,0.09957,0.099583,0.27811,-0.053482,-0.23205,-0.12999,-0.053488,-0.10449,0.023041,0.09957,0.023059,-0.10449,0.074038,0.048555,-0.027974,0.048536,0.023035,-0.078972,0.023035,-0.078996,0.023029,0.048543,0.074069,0.15058,0.048536,0.099564,-0.12999,-0.25754,-0.10451,-0.027969,-0.002448,-0.002461,0.099546,0.023035,0.048549,0.12508,0.099546,-0.053482,-0.027969,-0.027962,0.074051,0.099546,0.048531,-0.002485,-0.002454,0.048567,-0.078984,-0.07899,-0.10451,-0.002472,-0.053464,-0.10448,0.12507,0.099552,-0.10449,-0.002454,-0.12999,0.023041,0.12505,-0.1045,-0.078977,-0.10448,0.074051,0.023035,0.074057,0.22709,0.099546,0.048555,-0.002461,-0.18101,-0.10449,-0.05347,-0.002467,0.074051,0.15056,-0.002467,0.023035,-0.027969,-0.15549,-0.02798,0.023035,0.074057,-0.078977,-0.07899,0.12505,0.099564,-0.12999,0.023035,0.12505,-0.10448,-0.002467,0.12506,0.099564,-0.027974,-0.002479,-0.18101,-0.1045,0.048536,0.074062,0.12509,0.099564,0.2526,-0.15549,-0.181,-0.002485,-0.181,-0.15551,0.048536,0.074057,-0.05347,-0.002467,0.023035,0.22709,-0.078977,0.12505,0.20159,-0.18101,0.12505,-0.027969,-0.10449,-0.079008,0.023035,-0.053464,0.023041,0.074038,-0.053482,-0.05347,0.023035,0.023047,-0.10448,-0.1045,-0.027987,0.048549,-0.053458,-0.027987,0.12505,0.023047,-0.027974,0.023023,0.048531,0.074057,-0.002467,0.023035,-0.02798,-0.12999,0.023047,-0.027974,0.074038,0.1487,0.0977,0.1487,0.1232,-0.027956,-0.027974,-0.002485,-0.002454,-0.027969,0.099546,-0.027974,0.074069,-0.053495,-0.027969,-0.002448,0.048536,-0.002472,0.048561,0.074057,-0.002479,0.048555,0.023041,-0.10449,-0.07899,-0.027993,-0.13,0.048543,0.023059,-0.002454,0.048543,-0.027993,0.074038,0.074051,0.048549,-0.027956,-0.053482,0.023029,-0.1045,0.099564,-0.027956,-0.053482,0.023023,-0.027974,-0.078984,-0.002448,0.023041,-0.027969,-0.002485,0.023041,0.15057,-0.053464,-0.07899,0.048536,0.023029,-0.027956,0.17608,-0.053482,-0.027993,0.023035,-0.078972,-0.002454,0.023041,0.023029,0.023023,-0.027969,-0.002448,-0.078972,-0.002491,-0.027969,-0.027956,-0.027974,0.074038,0.048536,-0.002454,-0.053476,-0.027974,0.099546,-0.12999,0.023054,-0.002467,-0.002485,0.023035,-0.002467,-0.078972,0.023047,-0.002461,0.023023,0.048531,-0.07899,-0.078972,0.023059,0.023047,-0.027974,-0.027987,-0.002479,-0.002467,0.023041,0.048561,0.074057,0.048549,-0.027993,-0.002485,-0.027974,-0.027956,-0.002467,0.074038,-0.002479,-0.053476,0.048549,-0.053464,-0.078972,-0.002467,-0.053482,0.048531,-0.027969,-0.002467,-0.027956,-0.078972,-0.027974,0.023023,0.048536,-0.002479,-0.002461,0.023047,-0.078977,-0.027956,-0.12999,-0.078984,-0.053476,-0.027993,0.048531,0.099546,0.074044,-0.027969,-0.027974,-0.027962,0.048543,-0.027969,0.023023,0.023035,0.074062,-0.027969,-0.053482,0.023029,0.023035,0.023054,0.023054,-0.1045,-0.07899,0.099546,0.074038,0.09954,0.023029,-0.053482,0.099564,0.099564,-0.027962,-0.002467,-0.002467,-0.053482,-0.027993,-0.002479,-0.002467,-0.05347,-0.027956,0.048549,0.023023,-0.002467,0.074057,0.048555,0.023054,0.048549,0.023035,-0.053495,-0.002472,0.023035,0.023059,-0.002467,-0.002479,0.023041,-0.027962,-0.002448,-0.002467,-0.002467,-0.053488,0.099546,-0.1045,0.074051,-0.053464,-0.027974,0.074044,0.074051,-0.002454,0.099564,0.023023,0.048531,-0.002461,-0.002461,-0.053464,-0.027974,-0.07899,0.023029,0.048531,0.12507,-0.05347,-0.13,0.12506,0.074051,-0.10449,-0.027974,0.048531,0.12507,-0.027974,-0.23202,-0.027956,0.12505,0.048561,0.023065,-0.053464,0.048525,0.099515,0.02301,0.099534,-0.002497,0.15057,0.023029,-0.12995,0.22718,0.35466,-0.48708,-0.002491,-0.25757,-0.10453,-0.13001,-0.23204,-0.027993,0.3546,0.25258,0.30364,-0.74205,-0.20636,0.91562,0.27804,0.3292,-0.41055,-0.027876,-0.38503,-1.0484,-1.1249,-1.1249,1.1199,1.9616,2.4718,1.7832,-1.8645,-0.53842,-2.7316,-1.8389,-0.053568,-0.05364,-0.33416,1.5535,1.273,5.4816,0.50755,-2.1706,-2.3235,-2.1448,-0.61472,1.3492,2.3441,1.9871,-2.6297,-1.7624,-0.334,2.829,0.9925,-2.4255,-1.9921,-0.33433,-0.20666,-1.1759,-1.4308,0.6862,3.0584,4.6144,2.4464,1.3749,-0.86994,-4.4148,-6.2765,-0.84436,0.6092,1.1704,-0.74231,-2.5273,1.6553,3.8745,5.1756,3.2882,-2.0684,-3.2673,-2.8336,-3.063,0.32884,0.53296,-2.9864,0.32915,0.91575,2.6248,1.7318,1.6553,0.12486,-1.2522,-1.3797,-0.35966,-0.28312,-2.604,0.53321,1.4005,4.6144,1.0943,-2.1196,-2.2471,-1.3289,-0.97188,0.38001,-1.5326,0.074136,-0.48699,2.8537,1.2471,0.12529,1.7576,1.1964,-0.30854,-0.84423,-0.58915,-0.89518,-1.6092,1.3236,-0.61436,0.55879,-0.41073,-0.13014,-0.41063,2.4208,-0.23195,-2.0685,-1.0483,-0.81884,-0.35962,-0.56348,0.58418,-0.53818,0.022974,2.2932,3.1606,1.8852,-1.4818,-1.2779,-1.1759,-0.5893,-0.89522,0.073879,0.073959,-0.18094,-2.3485,2.5735,1.0687,0.7881,0.32893,-0.027956,-0.92054,-0.71666,-0.027907,-0.18104,-0.28304,-0.078977,-1.7111,0.78809,0.81359,-0.078959,-0.0535,0.63514,0.40561,1.4514,0.50762,-0.64014,-0.74219,0.17607,-0.18099,-0.79315,-1.1502,-1.1503,0.73727,1.477,0.58414,0.048549,-0.30858,-0.7932,0.60975,0.12518,-0.15554,0.22697,0.3546,-1.1248,-0.078977,0.76283,0.73728,0.20156,-0.43609,-0.46161,-0.94617,0.17609,-0.28308,-0.25754,1.0688,1.3749,0.83931,-0.61465,-1.2524,-0.89522,0.40552,2.1652,-3.5725,-0.81852,0.73696,1.0686,1.1962,0.73718,0.12507,-0.25741,-1.0737,0.20146,-0.18104,0.6098,-0.64002,-0.10444,-0.053519,-0.28301,-1.7368,0.40558,0.89022,0.8392,-0.18108,0.27807,-0.20649,-0.9462,0.91578,1.528,-0.1555,-1.2268,0.074057,-0.10452,-1.3544,0.55876,2.0637,1.7065,-1.4309,-1.5074,-0.76771,-0.74219,-0.078977,0.83927,1.4004,-0.38508,0.074075,-0.35958,-0.4616,-0.23203,-0.002418,0.35468,0.71172,0.0485,-0.35953,0.17602,0.73723,0.20151,-0.38508,-0.35959,-0.66557,-0.38498,-0.38504,0.73717,0.78823,0.81384,-0.10448,-0.51264,-0.94625,-0.053513,0.22709,-0.002443,-0.35957,-0.027969,0.50769,0.73723,0.43116,-0.30853,-0.99725,-0.48713,0.27808,0.55869,-0.12999,0.22712,-0.15548,0.38016,-0.002461,-0.027956,-0.74221,-0.38511,0.17608,0.40563,-0.35961,-0.002461,0.43118,-0.74211,-0.002485,0.6607,2.1656,0.32904,-0.46165,-1.0481,-1.0737,0.073977,0.55867,0.66071,0.5842,-0.97171,-0.41057,-0.25753,-0.15554,-0.20652,-0.33408,0.17612,0.83929,-0.38509,0.38016,0.023035,-0.18103,0.30363,-0.18103,0.60969,-0.33409,0.15059,0.68622,-0.61463,-1.2013,-0.18098,0.25266,0.94128,-0.4106,0.074002,0.43114,-0.002454,-0.53809,-0.71665,-0.33404,0.63523,1.0433,0.15052,-0.79324,-0.25755,0.1506,-0.38504,0.074087,-0.48708,0.12509,0.48217,1.0433,0.96676,-0.15556,-1.0228,-1.0738,-0.078984,0.30366,0.32917,-0.46156,-0.15551,-0.28306,-0.15551,0.27813,0.17611,-0.33408,0.15059,-0.4106,0.02301,0.6352,0.55871,-0.002448,-0.84422,0.099577,0.83932,-0.38508,-0.002497,-0.30859,-0.05347,-0.41059,-0.027974,-0.30854,-0.25754,-0.02795,-0.15546,0.6352,0.78823,0.17607,-0.64016,-0.10449,0.023072,0.099583,0.32911,0.09954,-0.25756,-0.13,0.023078,0.63533,0.17611,0.17595,0.022956,-0.61468,-0.51261,-0.30851,0.1251,-0.027969,0.048543,-0.078959,-0.2065,-0.053464,0.09957,0.12506,-0.10448,0.48216,1.1454,0.86478,-1.0483,-0.58914,-0.10449,-0.28305,0.15057,0.2016,-0.181,-0.61466,0.099552,-0.20651,-0.078966,0.50767,-0.25754,0.074062,0.048561,0.43116,0.2526,-0.10454,-0.23202,-1.5839,-0.079002,0.48221,1.1709,1.0433,-0.4616,-0.56364,-0.69115,-0.20652,0.27811,-0.027956,0.40565,-0.58914,-0.66566,0.30364,1.1199,1.0688,0.074069,-0.64013,-0.6402,-0.3341,-0.027962,0.023072,0.22706,-0.35959,-1.2523,0.7883,1.1454,0.30364,-0.4106,-0.078984,-0.10449,0.66075,0.27812,-0.38507,-0.41058,-0.58916,-1.0228,0.27806,0.91581,0.023065,-0.027969,-0.33406,-0.13,-0.15551,0.45668,0.38014,0.27812,0.074081,-0.71667,-0.43611,0.02301,0.25261,-0.41055,0.43118,1.375,0.15056,-0.38511,-0.92073,-0.51261,-0.28305,0.023047,0.048543,-0.002443,-0.15548,0.048543,0.32913,0.27812,0.38012,-0.43612,-0.10452,0.023047,0.48219,0.4312,-0.15549,-0.30856,-0.71668,-0.38508,0.32908,-0.28308,-0.25754,-0.28305,0.17609,0.71175,0.38017,-0.38506,-0.027956,0.22711,0.22712,-0.23203,-0.18105,-0.18101,0.048525,0.048525,-0.002461,-0.18098,-0.027987,0.023047,0.048567,0.074081,0.048531,-0.027993,-0.13001,-0.18101,0.22709,0.43116,0.96682,-0.33407,-0.4871,-1.0993,0.099564,0.50769,0.50769,-0.15553,-0.35957,-0.53812,-0.079008,-0.02795,0.38013,0.43109,-0.053458,-0.002436,0.074075,-0.027944,-0.02792,-0.02798,-0.13007,-0.33411,0.55869,0.35466,0.63525,0.17609,-1.3289,-0.69117,-0.51259,0.32915,0.76276,0.40562,-0.38509,-0.43611,-0.20652,-0.027993,-0.078966,0.023059,0.20159,0.15056,-0.027974,0.048561,0.32913,-0.002461,0.30363,-0.35958,-0.28305,0.074087,0.43115,0.023041,-0.48712,-0.35957,-0.20653,-0.053464,-0.002443,-0.13001,0.55867,0.43115,0.78827,-0.4871,-0.38508,-0.078984,-0.053451,0.074087,-0.56361,0.22709,0.023023,0.50765,0.30361,0.55871,-0.30855,-0.48711,-0.053488,0.048561,0.023065,0.12505,-0.38507,-0.46161,0.023041,-0.28308,-0.078977,0.48217,0.09957,0.9158,0.55869,-0.86971,-0.89519,-0.2575,0.20161,0.43114,0.43112,-0.028018,0.07402,0.023005,-0.35956,-0.181,-0.181,-0.5381,-0.027969,0.38014,0.99231,0.25262,-0.38506,-0.078972,0.099552,0.17606,-0.58916,-0.25756,-0.38506,0.25262,0.099552,-0.48706,0.12505,0.09957,0.40565,0.63518,-0.35961,0.12505,-0.027938,-0.51258,0.048573,-0.053464,-0.053451,-0.15549,0.25256,0.45663,0.48216,-0.028018,-0.002467,-0.48711,-0.56362,-0.1555,0.40566,0.20159,-0.20653,-0.053513,-0.002467,0.38018,-0.33404,-0.10452,0.63523,0.4822,-0.53812,0.12504,-0.028005,-0.027993,-0.2065,-0.002479,0.099546,0.15057,-0.1045,-0.078977,0.27814,0.35464,0.27809,-0.23205,-0.15549,-0.2065,-0.33406,-0.35957,-0.002423,0.2526,0.71173,0.3036,-0.51263,-0.25757,-0.20652,-0.33404,0.15062,0.09957,-0.05347,-0.23203,-0.078984,0.35465,0.35462,-0.027974,0.12507,-0.25753,-0.41061,-0.35957,0.12509,0.45666,0.048555,0.099564,0.048555,-0.25751,0.12509,-0.74218,-0.20655,0.43115,0.43116,-0.078977,-0.20652,-0.002472,0.25259,-0.15551,0.074069,-0.15551,0.17609,0.30361,-0.15553,0.17609,-0.027956,-0.13,0.048573,-0.23201,-0.64017,-0.33407,0.8648,0.89028,0.30361,-0.28306,-0.86972,-0.58913,-0.33405,-0.07899,0.50767,0.22708,0.099577,0.048518,0.17606,-0.027969,-0.07899,0.099588,-0.02798,0.30361,-0.13,0.048561,-0.002448,-0.20653,0.099552,0.074051,-0.18103,-0.35956,0.20159,0.023035,-0.20655,-0.1555,-0.13001,0.58419,1.0433,-0.053482,-0.43609,-0.64014,-0.30855,-0.33405,0.17608,0.30363,-0.078966,-0.053482,-0.20654,0.30362,0.17609,0.68624,0.25262,-0.53811,-0.13005,-0.027987,-0.05347,-0.18101,0.27808,0.15059,0.023084,-0.58914,-0.20655,-0.079002,0.20158,0.48219,0.30364,-0.13,0.12509,-0.23207,-0.18105,-0.64017,0.15057,0.68626,0.099601,-0.15553,-0.18105,-0.25758,-0.07899,-0.15548,0.023047,0.1761,0.35463,0.15059,0.074081,0.023078,-0.028005,-0.053519,-0.15553,-0.078972,-0.002467,0.048543,0.099564,-0.10449,-0.25754,-0.002454,0.099564,0.099583,-0.25751,-0.1555,0.35458,0.023072,0.38011,0.022998,-0.25757,-0.181,-0.25753,-0.20652,0.099564,0.30361,0.074062,0.38013,0.048585,-0.35953,-0.15549,0.25259,0.048543,-0.46159,-0.3851,-0.3851,0.6862,0.50769,1.2474,-0.079008,-1.1247,-0.66561,-0.58914,-0.079014,0.20155,0.15052,0.3036,0.4312,0.30363,0.12507,0.1251,-0.35956,-0.027993,0.12507,0.15059,-0.078984,-0.15552,-0.02798,-0.053464,-0.10452,-0.002485,-0.23204,0.023059,-0.15551,0.30364,0.71171,0.099528,-0.92074,0.2271,-0.13,-0.002461,0.2271,0.20162,-0.28302,0.20156,0.048531,-0.20654,-0.07899,-0.078966,-0.23202,0.25259,0.12507,-0.1045,0.32913,0.2271,-0.053519,-0.41058,0.25265,0.074069,-0.15548,-0.10449,0.25255,-0.53816,-0.30859,-0.053464,-0.10449,-0.30855,0.45666,0.68622,0.91582,-0.10446,-0.35957,-0.66564,-0.027993,0.099552,-0.15548,-0.20649,-0.20656,0.25257,0.35461,-0.15554,0.074044,-0.053451,-0.053433,0.12505,0.30361,0.048555,-0.20651,-0.18103,-0.10449,0.40563,0.32913,-0.12999,-1.1758,-0.23203,0.38013,0.45666,0.30363,-0.48713,0.27811,-0.002461,-0.07899,0.023047,-0.002467,-0.078984,-0.002443,0.20158,0.074075,0.55865,0.17606,-0.33409,-0.4361,-0.20653,-0.25753,0.20158,0.15057,0.35464,-0.002423,-0.20649,-0.1555,0.22712,0.35463,-0.053531,0.20152,-0.079002,-0.10447,-0.30854,-0.38506,0.2271,0.71174,0.60971,-0.181,-0.23197,-0.58915,-0.56365,0.074062,-0.20655,0.30358,0.38012,-0.10451,0.099564,-0.002443,0.074075,0.023078,0.048543,-0.33406,-0.002461,0.023047,0.45668,-0.002461,-0.35956,-0.18103,-0.41061,-0.00251,0.2271,0.58422,0.099583,-0.33403,-0.5126,-0.18103,0.22707,0.60969,-0.002454,0.17607,-0.25753,-0.15554,-0.053458,-0.25752,-0.027956,0.35464,0.099601,0.20155,0.30358,-0.23204,-0.25751,0.12508,0.048555,-0.10452,-0.28305,0.1251,-0.053482,-0.58916,-0.28305,0.099583,0.30365,0.50767,0.58417,0.02301,0.12508,-0.79319,-0.4871,-0.46159,0.09957,0.27812,0.074057,0.48216,0.048543,-0.078996,-0.20651,-0.23199,0.023047,0.25259,0.023023,-0.053482,-0.05347,0.023035,-0.079021,0.20158,0.17608,0.38014,-0.027962,-1.0228,-0.23203,0.15059,0.50771,-0.10449,-0.0535,-0.002521,-0.10452,0.048561,-0.25753,0.38017,0.12508,0.53318,-0.25757,-0.002485,-0.002479,-0.25753,0.09957,-0.28304,-0.18098,0.02309,-0.027974,0.27809,0.38011,-0.10451,-0.027987,0.12507,0.074069,-0.12996,-0.053488,-0.079021,-0.18103,-0.46161,0.30361,0.15057,0.12505,0.074062,0.25261,0.12507,-0.20651,0.074062,-0.1555,-0.078953,-0.027969,0.023041,-0.027993,-0.027998,-0.15552,-0.053488,-0.027987,0.074057,0.12506,0.12507,0.074051,0.023047,-0.13001,-0.43604,0.25264,0.30364,0.66075,-0.15547,-0.33409,-0.43615,-0.20659,0.27808,0.38013,-1.1248,-0.002454,-0.00243,-0.10448,0.27812,0.25262,-0.002436,0.074062,0.22708,-0.10451,0.074062,-0.13002,0.35463,1.2729,-0.18102,-0.81871,-0.43607,-0.56366,-0.10452,0.048549,0.17612,0.25264,-0.18103,-0.079002,-0.02798,-0.053476,0.023029,-0.002485,0.35465,0.40566,-0.30854,-0.61465,0.099559,0.40565,0.48219,-0.30854,-0.18107,-0.15551,0.32913,-0.41061,-0.15548,-0.002491,-0.10455,-0.027969,-0.053482,-0.002461,0.074081,-0.10447,-0.002448,0.20158,0.45667,0.30363,-0.10447,-0.56362,-0.35956,0.20158,-0.66567,0.22712,0.38018,0.50769,0.074026,-0.33413,-0.20656,-0.13004,-0.41058,-0.13001,0.074075,0.25262,0.1251,0.12509,-0.10447,-0.078996,0.099546,0.023047,0.20161,-0.25753,0.25257,-0.1045,-1.1248,0.55868,0.76273,0.73721,0.50767,-0.43603,-0.28294,-1.3288,-0.53817,-0.38512,0.27804,0.55861,0.20155,0.3291,0.074062,0.17611,0.12512,0.074093,0.023065,-0.053451,-0.053446,-0.05347,-0.13002,-0.13001,-0.078977,0.023029,-0.002491,-0.078996,-0.07899,-0.002479,-0.10454,-0.13002,0.76277,1.0179,0.023047,-0.58914,-0.053451,-0.86966,-0.43605,-0.10453,0.30355,0.27806,0.2781,0.15057,-0.053464,0.27811,0.15057,0.12511,-0.027944,-0.15548,-0.12999,-0.18104,-0.38509,-0.2065,0.2016,0.2016,0.43116,0.48216,0.15058,-0.20651,-0.18102,-0.053495,-0.25755,-0.76771,-0.30857,-0.15553,0.30361,0.2016,0.17611,-0.48711,-0.053464,0.20163,0.074062,0.048549,0.32914,-0.10449,-0.53807,0.78825,0.48211,-0.002503,-0.15552,-0.18101,-0.05347,-0.18103,-0.23202,-0.07899,0.048573,0.20156,0.17608,-0.25754,-0.027944,0.38018,-0.35955,-0.46162,0.27808,0.099528,0.15057,-0.002461,0.12507,0.09957,-0.078959,-0.38506,-0.053476,0.074069,0.099564,-0.07899,0.048531,0.2526,0.25259,0.099577,-0.20652,-0.13001,-0.18103,-0.15551,-0.15549,0.25262,-0.053476,-0.23202,0.12507,-0.181,-0.027969,0.30363,-0.4106,0.35467,-0.25756,-0.0535,0.074038,-0.23201,0.023047,0.074038,-0.66564,0.15059,0.5842,0.43115,0.15056,-0.10449,-0.027956,0.023078,0.048585,0.023041,-0.13003,0.099528,-0.33406,-0.10449,-0.35956,0.048555,0.074038,-0.002461,-0.027944,-0.02798,0.60971,-0.28305,-0.10452,-0.35957,-0.002485,0.38014,0.38017,0.48219,0.17609,-0.79318,-0.10447,-0.18101,-0.15553,0.22705,-0.13002,-0.25753,0.43114,0.09957,0.12509,0.099552,-0.002454,0.048549,0.099546,-0.25754,-0.078972,-0.053482,0.099552,-0.10449,-0.20651,0.099552,0.074044,0.048555,-0.13003,0.35462,0.1506,-0.25754,0.12513,-0.33404,-0.002516,0.38011,-0.13002,0.023029,-0.53809,-0.283,0.35461,-0.027998,-0.002461,0.12508,0.12508,-0.33404,-0.12999,0.20159,0.48218,0.35464,-0.86972,-0.20653,0.15057,0.17606,0.91583,-0.002467,-0.25756,-0.53814,-0.33406,-0.05347,0.074062,-0.002472,0.38016,0.15059,-0.28306,0.45667,-0.18098,-0.23205,0.048512,0.32912,-0.053476,-0.027969,-0.18103,-0.079008,-0.027993,0.048567,0.2016,0.17611,-0.43609,0.099595,0.20161,0.17608,-0.20656,-0.002485,0.15057,0.48216,-0.35956,-0.20651,-0.23203,0.2781,0.074081,-0.4616,-0.41057,-0.078977,-0.13001,0.074069,0.71177,0.099546,0.15054,-0.027998,-0.8187,-0.15552,0.53317,0.96681,-0.23205,-0.43609,0.20161,0.25263,0.60975,-0.28305,-0.20655,-0.079026,-0.053495,-0.181,-0.25753,-0.053476,0.43118,0.15059,-0.28306,-0.38503,-0.13001,-0.10451,0.35462,0.20156,-0.28307,-0.15549,0.20161,0.2271,0.12508,-0.027969,0.15059,0.15059,-0.027969,-0.1555,-0.25754,0.074044,0.074044,0.20159,-0.15551,-0.33403,-0.38508,0.32912,0.45665,0.40564,-0.13002,-0.15551,-0.56364,-0.53809,0.15058,0.66075,-0.05347,-0.3596,-0.30863,0.2526,-0.078996,0.17609,0.48221,0.17613,-0.1555,-0.078977,-0.002467,-0.10449,0.074051,-0.10452,0.27811,0.35464,0.17608,-0.30854,-0.35959,-1.0228,-0.25756,0.17607,0.35465,0.45669,0.22709,0.25263,-0.15551,-0.58914,0.2781,0.35464,-0.33406,-0.10452,-0.02798,0.30364,0.023041,-0.35956,-0.25753,0.20158,0.27812,0.30363,-0.053482,-0.43607,-0.35956,-0.48709,-0.33404,0.25258,0.30358,0.43113,-0.15551,-0.078972,0.68626,-0.05347,-0.53813,-0.33403,-0.33404,-0.07899,-0.053525,0.27809,0.30363,0.023059,0.30363,0.45667,0.074062,-0.5126,-0.61463,-0.20652,0.023078,-0.23205,-0.18101,0.35462,0.45666,-0.002497,0.048525,-0.002479,0.048549,0.12507,0.048567,-0.10447,0.2271,0.40562,-0.028005,-0.15554,-0.51263,-0.07899,0.60973,0.55872,-0.10448,-0.28303,-0.10447,-0.71668,-0.38511,0.55868,0.99234,0.048555,-0.38506,-0.35958,-0.25757,0.3291,0.53318,-0.3851,-0.35954,-0.002405,0.58421,1.1454,-0.28307,-0.71667,-0.4361,-0.38509,0.023035,0.43115,-0.027993,0.023029,0.09954,-0.027969,0.15062,-0.053451,-0.18098,0.023041,0.27806,-0.25758,0.023035,0.22712,0.15059,0.27809,0.43116,-0.92073,-0.1555,0.38017,-0.30851,-0.07899,-0.027993,0.22707,-0.002491,0.048555,0.35465,-0.35956,-0.13001,-0.38508,0.099595,-0.05347,0.30361,0.074044,-0.079008,0.023023,0.35463,-0.10444,-0.027938,-0.18101,-0.23204,-0.15549,0.17604,0.17604,0.074044,0.2016,0.32913,0.099546,-0.61465,-0.10449,0.099583,0.048585,-0.078972,0.15057,0.12504,-0.079014,-0.15554,0.023054,0.023059,0.58422,0.35463,0.099583,-0.41058,-0.58916,-0.002485,0.023035,-0.027974,-0.66553,0.55857,0.17604,-0.25749,0.25256,0.023072,-0.002423,-0.15543,0.25255,0.78807,0.20159,-1.813,0.58414,0.38001,0.43099,-0.0535,-0.13002,-0.10452,-0.15553,-0.027969,-0.25754,0.22712,0.099595,0.45669,-0.18097,-0.2575,0.099552,0.48214,0.048518,-0.86972,-0.84425,-0.002491,0.25259,0.32915,0.43118,-0.02798,0.12507,0.27814,0.17609,-0.027987,-0.20651,-0.18101,-0.28308,0.074051,0.023047,0.5587,0.35463,-0.053495,-0.30857,-0.58913,-0.64012,-0.30852,0.023059,0.40564,0.2271,0.074038,0.25259,0.15059,0.074087,0.32914,0.22705,-0.3341,-0.28303,0.22715,-0.76764,-0.30858,0.2526,0.27809,0.20153,-0.10454,-0.079002,-0.18101,0.40569,0.12514,0.25262,0.2781,-0.053531,-0.61466,-0.58913,-0.13,0.12508,0.45662,0.074081,0.048536,0.023023,-0.053482,0.023035,-0.002461,-0.078972,0.17609,0.25263,-0.05347,-0.51262,-0.002503,-0.027956
