0.023017,0.048555,-0.002436,-0.027969,-0.1045,0.023029,-0.002454,-0.12998,0.023017,0.17605,0.023035,-0.078959,-0.002467,0.099534,0.023035,-0.10449,-0.078984,0.048536,0.074062,0.074057,-0.10448,-0.12999,0.17606,0.074057,0.074062,-0.12999,-0.13002,-0.13001,-0.20647,0.22707,0.074057,0.17605,0.25257,0.048555,-0.20649,-0.23201,-0.078996,-0.027987,0.023047,0.048555,-0.02795,-0.053488,0.12507,0.17606,0.074057,-0.05347,-0.12999,-0.15551,-0.027974,0.048536,0.17607,0.09957,-0.053458,0.048543,-0.41052,0.12503,0.12502,0.099552,-0.10448,-0.078966,0.099552,0.20157,0.12507,-0.13001,-0.15548,-0.002485,-0.002467,-0.10449,-0.053476,-0.10449,-0.027944,0.30358,0.27808,0.09957,-0.20649,0.048525,-0.053495,0.023047,-0.078972,-0.15549,-0.053476,-0.053476,0.023047,0.17607,-0.05347,-0.1045,0.074057,0.048531,0.074057,-0.002467,-0.078972,-0.078984,0.099546,-0.002472,0.023047,-0.05347,-0.053476,0.048543,-0.078984,-0.10447,0.074033,0.15057,0.074051,-0.002467,-0.15549,-0.15551,0.023035,0.048536,-0.002472,0.09957,-0.05347,-0.027962,-0.07899,-0.181,0.048531,0.15056,0.074026,0.12505,0.023023,-0.12999,-0.12998,0.12508,0.38011,0.074051,-0.027974,-0.053488,-0.002485,-0.027974,0.023029,0.099564,0.048561,-0.002454,-0.15549,-0.002467,0.023029,0.099546,-0.181,-0.002467,0.048543,-0.002461,-0.30851,0.17604,0.38008,0.09954,-0.41052,-0.078966,0.15056,0.023035,-0.2065,0.15055,0.20156,0.15057,0.074057,-0.07899,-0.053482,-0.10451,0.023023,0.023041,-0.12999,-0.078972,-0.027969,0.099564,0.099564,0.048549,-0.027956,-0.12999,-0.02798,-0.07899,0.12504,-0.10447,0.023059,0.023059,0.074038,-0.002485,0.023035,0.048536,0.09954,-0.18101,-0.053482,0.099552,0.12507,-0.078947,-0.078984,-0.002491,0.074033,0.048549,-0.027969,-0.078996,0.023029,0.023035,0.15057,-0.027962,0.023023,0.023035,0.12505,-0.12999,0.048536,0.023029,0.09954,0.09957,-0.10445,-0.02798,0.09954,0.023035,-0.12999,-0.027974,-0.13,0.023023,0.023047,-0.027962,-0.027969,-0.002461,0.12505,0.074062,-0.002472,-0.027987,-0.053476,0.074051,-0.05347,-0.1555,0.17605,0.15056,0.15057,-0.002454,-0.13,0.048536,0.048549,-0.13,-0.078984,0.12505,0.17607,0.023041,-0.15549,0.023035,0.20157,-0.18098,-0.078972,-0.1045,-0.13001,-0.027987,-0.053458,0.22708,0.099564,-0.13001,-0.15551,0.55869,-0.002472,-0.15551,0.17609,-0.07899,-0.027987,-0.002472,0.023029,-0.053488,-0.02798,-0.002472,-0.002479,0.099564,0.023059,-0.027956,0.023047,0.12505,-0.027969,0.048549,-0.12998,-0.1555,-0.0535,0.15054,0.074051,-0.053464,0.023041,-0.002472,0.023047,-0.078959,0.023029,-0.002461,-0.07899,-0.0535,-0.10451,0.023035,0.099559,-0.053464,-0.002454,0.09954,0.099559,-0.15549,-0.28303,0.48215,0.20159,-0.25753,-0.13001,0.023047,-0.07899,-0.002472,0.023035,-0.002454,-0.15547,0.15056,0.048549,-0.05347,0.12506,-0.002461,0.048536,0.074033,0.074051,-0.18101,0.15056,0.023047,-0.078972,-0.13001,0.25261,-0.078966,-0.078972,-0.027974,-0.13002,-0.18101,-0.002467,0.048555,0.15059,0.023029,0.17607,0.12507,-0.1555,-0.181,0.048531,-0.027998,0.048543,0.074044,-0.12999,0.074044,0.17607,-0.12999,0.023035,0.15056,-0.027969,-0.30851,0.074033,0.074057,-0.10449,0.15056,0.048549,-0.002467,0.074057,-0.027969,-0.1045,0.048536,-0.10448,-0.13001,0.15057,-0.078977,0.074057,0.048549,-0.078972,0.023029,0.099546,0.099546,-0.23203,-0.13,0.15059,-0.053464,-0.41056,0.27812,0.25257,0.12505,-0.12997,0.023029,-0.002491,-0.027974,0.27812,0.15057,0.12507,-0.13002,-0.12999,0.048531,-0.1555,-0.002479,0.048536,0.074044,-0.30854,0.66074,0.2526,-0.1045,-0.10449,-0.15552,-0.053482,-0.10449,-0.078972,-0.027969,-0.053464,0.048518,0.048555,0.32913,-0.053482,0.43115,-0.10449,-0.20652,-0.15553,-0.13001,-0.027969,0.023047,-0.20648,-0.053488,0.099552,0.17607,-0.027962,-0.053488,-0.078996,0.048543,0.023059,-0.25753,0.09954,0.20158,-0.15545,0.12508,0.6352,0.099552,-0.38507,-0.4106,-0.30856,-0.28305,0.55871,-0.10449,-0.23203,0.15056,0.12507,-0.002454,-0.053464,0.20158,0.023041,-0.027962,0.17607,0.15059,-0.053464,-0.002485,-0.053495,0.048536,-0.33402,0.07402,0.17609,-0.181,0.048525,0.074038,-0.05347,-0.027993,-0.027962,0.023072,-0.002467,0.074044,0.30364,-0.20652,-0.15552,-0.10452,-0.12998,0.1506,0.12505,-0.027969,-0.078996,-0.078996,0.099546,0.048549,-0.15549,-0.027969,0.32913,-0.078984,0.12505,-0.002467,-0.181,-0.18103,0.43117,0.074062,-0.25754,-0.079008,0.30363,-0.05347,-0.232,-0.13004,-0.079002,-0.027974,-0.002454,0.048567,-0.05347,0.023047,0.074051,0.27808,-0.05347,-0.12996,-0.10449,0.3036,-0.07899,-0.18102,-0.078996,-0.002467,0.099546,0.023047,-0.002467,0.023059,-0.15549,0.048549,-0.002467,0.1742,0.099564,-0.053476,0.15059,-0.05347,-0.078996,-0.18103,-0.0535,-0.15547,0.048555,0.20158,-0.027969,0.12507,0.25259,-0.10449,-0.20649,-0.20652,-0.0535,-0.13001,-0.027944,-0.027974,0.22709,0.17607,-0.10451,-0.15553,0.074062,0.048549,-0.1555,0.1251,-0.181,-0.18103,-0.10452,0.48218,0.048561,0.20158,0.048549,-0.027974,-0.002497,-0.1045,-0.35954,0.30364,0.20159,-0.053495,0.22707,0.099559,0.023047,-0.002472,-0.25754,-0.0535,0.2271,-0.027913,-0.027987,-0.13002,-0.15547,0.023041,0.02301,-0.053488,0.023054,-0.10449,0.074044,0.12505,0.023041,-0.10447,0.38016,0.048555,-0.10452,-0.10449,-0.10449,-0.002472,0.074033,-0.15552,-0.25753,0.53321,-0.002461,-0.078996,-0.002472,-0.05347,-0.078972,-0.181,0.023029,-0.18103,0.17608,0.023059,-0.00243,0.3036,-0.13,-0.28303,-0.07899,0.17607,-0.078996,-0.15551,-0.10449,0.074044,0.15056,0.12507,0.17609,0.023054,-0.078966,-0.002461,-0.053495,-0.002454,0.20161,-0.07899,-0.13001,0.023017,-0.078984,0.099583,-0.18103,-0.053495,-0.078977,-0.002479,-0.027974,0.023047,0.38017,-0.002467,0.074033,-0.1045,-0.23202,0.25261,-0.10453,-0.078984,0.17612,0.20158,-0.027993,-0.10449,-0.053464,-0.1045,-0.002485,0.048506,-0.15547,-0.23196,0.12505,0.074033,0.17607,0.074057,0.023035,-0.053482,-0.30854,0.048561,0.12508,0.15056,0.074057,-0.25753,-0.13,-0.027974,-0.15553,-0.05347,0.074044,-0.002467,-0.15549,-0.10449,0.074026,0.68621,-0.28305,-0.41056,0.1761,0.074044,0.12504,0.30363,-0.30855,-0.28303,-1.2268,-0.79322,0.76276,0.55873,2.9054,0.40565,-2.1706,-1.5329,-0.43605,-0.76764,2.4205,0.048469,-0.89522,-0.15545,-0.71666,0.25263,0.5077,1.0689,-0.56354,-0.53809,-0.53817,0.48206,0.60963,-0.48712,0.73731,-0.12998,-0.76764,-0.69104,-0.69119,-0.10448,0.40552,1.0688,0.71172,-1.3798,-0.028036,2.6503,-0.84412,-1.6094,1.4259,-1.1248,-1.8135,-0.25757,2.2419,-0.84406,-1.3032,0.17595,-0.027956,0.30365,-0.027962,0.63521,1.6045,0.68621,0.76278,-0.30861,-0.66567,-0.79329,-0.66575,0.43142,-0.053255,-0.1556,-0.53828,0.83923,2.3952,0.099546,-1.1502,-1.6095,0.76275,-0.15553,0.023047,-0.12993,0.25259,3.1349,-0.89528,-0.002418,-0.20661,-0.76766,-1.1247,-0.33404,-1.0737,-0.76762,1.1964,0.86453,0.38008,-0.33388,0.48214,0.78823,-0.56353,-0.28317,-0.1298,0.048476,-0.38508,1.2219,-0.61467,-0.79325,0.86486,0.91576,0.12512,0.099608,-1.6604,-0.30868,-0.15554,-0.41041,0.07402,-0.028109,0.12506,0.099497,0.66071,1.3495,0.15068,0.023121,-0.6402,0.48214,-0.25755,0.20163,-0.99727,-1.6348,-0.48717,0.50749,0.68615,-0.10446,1.324,-0.71657,2.5739,-2.043,0.40557,-0.20658,0.27811,-0.25753,-0.28312,-0.6146,0.15059,-0.10445,0.074069,0.048604,1.5533,0.48217,-0.25751,-0.002491,0.099559,-0.46144,-0.28299,-0.4872,1.3494,-0.23194,-0.69113,-0.15559,0.022937,0.073965,-0.43604,-0.15549,-0.56362,-0.43602,0.17614,1.579,0.048561,-0.25751,-0.43615,0.68621,-0.6147,-0.71668,-0.10458,-0.25756,1.8341,-0.33409,0.78815,-0.79316,-0.89514,-0.81871,-0.71668,2.2422,0.68619,-0.38502,-0.002516,0.022974,-0.23211,-0.25757,-0.81856,0.25257,0.17611,0.27813,-0.43608,-0.35953,1.3749,1.0433,-0.5892,-0.81863,0.60971,-0.58918,-0.38513,-0.38513,-0.53807,-0.30854,0.63519,0.71177,0.99224,-0.58918,-0.71668,-0.20645,2.5483,0.074013,0.32913,-0.99712,-0.18117,-0.74216,-0.51255,-0.56362,-0.10452,1.4259,-0.43613,-0.48708,-0.38499,0.68623,1.6043,-0.002485,-0.71657,0.43116,0.5332,-0.81858,-0.66571,-0.56372,-1.2267,-0.053555,-0.15553,0.9668,1.0944,0.25268,-0.71673,0.81376,0.17593,-0.002443,0.074062,0.099595,-0.46151,-0.18108,0.048561,-0.76758,-0.41054,1.0178,0.6352,-0.079014,-1.0229,0.25265,-0.86966,1.426,-0.002516,-0.92073,-0.18105,1.4005,-0.20653,0.99235,0.023041,-1.3544,-1.0993,1.375,-0.56363,-0.2831,-0.6912,-0.23202,1.732,0.83928,-0.283,-0.76778,1.5024,-0.92074,0.25268,-0.76764,-0.46167,-0.43607,-0.28303,0.099552,0.25256,-0.10441,-0.10448,0.86473,-0.18093,0.023047,-0.51265,0.53317,-0.25751,0.60969,1.1198,-0.41066,-0.51263,-0.61453,-0.28298,-0.25758,-0.46161,0.48225,0.40566,-0.00251,-0.86959,-0.4107,1.528,-0.66565,0.022931,0.09954,0.66084,-0.48706,0.38016,-0.43612,-0.69119,1.0944,-0.027974,-0.30855,-0.43609,-0.51264,-0.33411,-0.13002,-0.23207,0.96685,0.48226,-0.30858,-0.33407,1.0434,-0.48707,-0.13,0.38026,0.30347,-0.053604,-0.81866,-0.64015,-0.027974,-0.43599,-0.15542,0.63521,0.45661,0.12509,-0.43608,0.30358,-0.48714,0.20161,-1.2013,1.9871,1.4005,-0.58916,-0.002491,-0.8952,-0.71662,-0.86974,-0.027956,0.22711,-0.2321,0.63521,0.40564,-0.6146,0.12505,0.91578,-0.12994,-0.89517,-0.13003,0.91576,-0.053488,-0.2065,0.40566,-0.10456,-0.43612,-0.61457,-0.053537,-0.89511,-0.92046,1.1961,-0.028121,0.55873,-0.43601,0.45673,0.22707,1.1709,-0.28309,-0.81866,-0.1555,-0.46156,-0.18107,0.38014,-0.51265,1.1709,-0.38509,-0.20649,-0.97176,-0.15546,1.0178,0.58416,0.55864,0.30363,-0.79319,-0.51262,-0.69115,-0.7166,1.1963,-0.38496,0.30356,0.27804,-0.25748,-0.1555,0.66069,-0.10452,-0.66562,0.17609,0.35465,-0.23208,-1.0227,-0.64012,2.2421,0.63517,0.35465,-0.76761,-0.64023,-0.64014,-0.81864,-0.20652,-0.25746,0.53308,0.83919,0.43121,-0.43609,0.63522,0.45668,0.17616,-0.92069,-0.56367,0.55868,-0.23204,-0.51262,0.58416,0.25255,0.50769,0.30368,-0.71663,-0.23205,-0.97177,-0.43611,0.66075,0.96683,0.099588,0.5587,-0.46161,-0.20652,-0.002552,-0.41059,0.099601,0.20157,0.38014,0.53318,-0.46162,0.074087,-0.10449,-0.25751,0.12509,0.35458,-0.46164,0.68626,-0.28311,-0.7676,-0.43604,-0.028054,0.12498,0.15059,0.35458,0.099588,-0.027956,-0.079002,-0.51256,0.27811,0.78824,1.0689,-0.58908,-0.25767,-0.53816,-0.51257,-1.0993,-0.18103,1.2219,0.5842,-0.7422,-1.2013,1.0688,-0.28301,0.27815,0.22707,-0.30864,-0.002363,-0.028042,0.25258,0.6862,-0.48708,-0.10443,-0.64011,-0.71666,0.60971,2.5482,-0.002485,-0.5891,-0.25759,-0.76769,-0.64007,-0.027969,-0.4106,-0.078996,0.20163,0.66069,0.45665,-0.35959,0.15057,-0.078941,-0.35951,-0.13001,-0.18106,-0.15555,-0.51256,-0.15553,0.66067,0.27813,0.48218,-0.30854,0.30365,-0.76763,0.60968,0.09943,-1.2522,-0.58911,-1.2523,1.579,0.15056,1.7575,0.86481,-0.56363,-1.0993,-0.13005,-0.84415,-0.53804,-0.20653,0.22705,0.83917,0.48216,0.099588,0.04858,-0.053402,0.15052,-0.12999,-0.10454,0.73725,0.12508,-0.13004,-0.2575,-0.6401,-0.23208,0.048506,0.25259,-0.33405,0.099564,0.023059,0.023084,2.4973,-1.1503,-1.3033,0.27809,-0.97179,0.89031,0.17616,-0.30856,0.023065,0.1506,0.12492,-0.41063,0.40565,-0.18095,-0.00243,-0.232,0.074033,0.6352,0.27814,0.89017,-0.15549,-0.79311,-0.3085,0.50764,-0.46164,1.5025,-0.43615,-0.74224,-0.71666,-0.53815,-0.3851,0.94132,0.074093,0.68625,0.074057,-0.28301,0.02309,1.2474,-0.18103,-0.25768,0.099521,0.023072,0.099559,-0.7166,-0.43609,-0.25754,0.58418,-0.76771,0.40566,1.3239,0.12507,-0.97171,-1.839,1.8595,-0.027969,0.15064,-0.84417,-0.51267,-0.5637,-0.33409,0.60977,0.73727,-0.027993,0.96681,-0.30852,0.86478,-0.1045,0.15056,-0.64017,0.96688,-0.20653,-0.41057,-0.028011,-0.41064,-0.61466,-0.43609,0.2271,1.8086,-0.30856,-0.20652,-0.15552,-1.5329,-0.10444,-0.12995,1.9105,0.38016,-0.92061,-0.97177,0.73715,-0.12999,-0.10449,-0.48713,-0.053464,1.579,0.20158,-0.5126,-0.81866,-0.15554,-0.25754,0.25256,0.20155,-0.053488,-0.28299,-0.84409,1.9106,0.09951,0.25257,-0.43609,-0.28309,0.58416,-0.2575,-0.38508,-0.7167,0.89029,2.0126,-0.002467,-0.99728,-0.99726,-0.053402,-0.74221,0.0485,0.074057,0.76275,0.27814,0.50769,0.35463,-0.028042,-0.38504,-0.30851,-0.1045,0.50771,1.5535,-0.079021,-1.1247,-1.4563,0.25254,0.099515,0.099473,-0.18101,-0.38505,0.25262,0.32918,1.0689,-0.71671,0.9413,0.32915,-0.53812,-0.81861,1.2218,-0.48714,-0.69117,-0.74218,0.86479,0.15057,-0.51257,-0.53815,0.09954,0.3801,-0.30855,0.58429,0.30361,0.12506,0.25263,0.55869,-0.43607,-0.33401,-0.66569,-0.51269,-0.23207,-0.35957,-0.46158,1.324,0.63518,0.17609,-0.079045,-0.7167,0.023078,-0.23201,0.12507,0.4312,0.45664,-0.56366,0.35465,0.099552,-0.078977,-0.53813,0.22713,-0.30856,0.27812,-0.69112,-0.35964,-0.33411,-0.51257,0.99234,-0.028011,-0.38496,0.048567,0.2526,-0.28307,0.27809,0.2781,-0.30854,-0.23207,-0.078972,-0.1555,0.73725,-0.15551,0.89027,0.73725,-0.94627,-0.10446,-0.23203,0.4056,-0.43604,-0.25758,-0.69119,0.63523,0.68626,0.86477,-0.58909,-0.53813,0.12508,-0.00254,0.35463,0.20156,-0.51262,-0.56355,0.074057,-0.002485,0.40565,-0.18104,-0.053537,-0.33395,1.3239,0.074051,-0.43597,0.22697,-1.1503,-0.84424,1.1454,0.96684,-0.81867,-0.35957,1.9872,-1.1758,-0.89526,0.96683,-0.58914,-0.58917,-0.25754,0.17609,1.1964,0.40569,0.53315,-0.43606,-0.28308,0.15057,-0.10453,-0.33406,0.96681,-0.002472,-0.48706,-0.3595,-0.28305,-0.61462,0.73724,0.9923,-0.84424,0.048549,-0.81875,-0.41059,-0.28305,0.91576,0.17607,-0.51256,0.023054,0.43124,0.25257,0.048482,0.17602,-0.15543,-0.30852,1.0433,-0.30855,-0.181,-0.053544,-0.20657,-0.28297,-0.51263,-0.38507,-0.74221,2.6248,0.60974,-0.30855,-1.0483,0.30361,0.15056,-0.28308,-0.4106,-0.48702,-0.12999,-0.48714,-0.1045,0.17606,0.50768,0.074051,2.2677,-0.53807,-1.5837,-0.13013,-0.20658,0.099528,-0.053458,0.32904,-0.10451,0.83931,-0.48705,-0.61461,1.0943,-1.1758,1.5789,-0.48712,0.66074,1.1454,-1.0228,-1.2778,-1.1758,-0.69119,0.86478,0.2271,0.2271,0.2016,-0.43613,-0.078984,0.43115,0.15056,-0.25753,0.60971,0.023023,-0.43605,0.07413,-0.18105,0.91583,0.074038,-0.53815,-0.74222,0.53321,-0.10452,-0.30857,0.30366,-0.35946,-0.53812,0.15052,1.0943,-0.30854,-0.002479,-1.1248,0.58422,0.81371,0.55869,-0.385,-0.2065,-0.30852,0.27805,0.63518,-0.35961,-0.23201,-0.41057,-0.66565,0.81379,0.86481,0.45663,0.38005,-0.76764,-1.0738,0.58426,0.3547,0.17606,-0.86979,-0.92078,0.71173,0.63521,-0.56352,0.023023,0.09954,0.55869,0.12504,-0.15554,-0.48705,-0.18103,-0.13002,2.2167,0.35461,-0.10452,-0.64018,-0.38513,0.023059,-0.1555,-0.078972,-0.58908,-0.30863,1.4004,0.38018,-0.61464,-0.86965,-0.15549,-0.76773,1.2729,-0.02798,1.0434,0.40563,-0.43616,-1.2013,0.074111,0.099534,-0.10449,0.099466,0.63521,-0.41055,-0.23194,0.17608,-0.079002,0.81375,-0.15551,-0.5381,-0.7932,-0.18103,1.2984,1.528,-0.7677,-0.18106,-0.71665,-0.20655,-0.61465,-0.48714,-0.56359,0.20164,2.1402,0.17609,-0.66568,0.12512,-0.30863,-0.41062,0.40566,1.4005,-0.64018,-0.43603,-0.10448,-0.3596,-0.33406,-0.1045,0.55869,-0.053495,0.40565,0.35468,-0.4616,-0.43617,0.66072,-0.33402,0.45672,0.074044,0.17603,-0.56359,0.099528,0.099528,-0.84409,-0.25754,-0.30856,0.68621,-0.078984,-0.46165,0.023047,2.7269,-0.18102,-0.81865,0.60969,-0.23202,-1.0482,-0.053531,0.12501,-0.15549,-0.053495,0.12506,0.2781,0.22709,-0.38499,0.38011,0.15054,0.38015,-0.02795,-0.28308,-0.18107,-0.51259,0.43126,-0.53812,0.38016,0.58422,-0.15545,0.022961,-0.89529,0.73727,-0.23203,-0.43609,0.5332,-0.41058,0.66067,0.15057,-0.86961,0.073965,-0.027987,0.7373,0.50762,-0.71669,1.1964,-0.43612,-0.20657,-0.41059,0.023035,0.074062,-0.00243,0.023041,-0.28306,0.6352,0.22712,-0.002472,-0.43609,-0.53816,0.83931,0.25263,-0.25757,-0.15553,-0.30857,0.66074,-0.0535,-0.1811,-0.38503,0.20161,0.32913,-0.79314,0.68627,0.022998,-0.64005,0.099466,0.22705,0.048518,0.27812,0.94133,-0.66565,0.023047,0.17614,-0.20651,-0.18103,-0.35957,-0.02798,-0.58918,-1.2778,2.4973,0.55864,-0.89518,-0.25753,0.20161,-0.028011,-0.23209,-0.15548,-0.58913,-0.94626,-0.23202,0.12507,1.375,-0.027925,-0.181,-0.10453,0.66067,-0.20653,-0.51256,0.048561,-0.30855,-0.15549,0.022998,-0.13,-0.079026,0.78825,-0.18103,1.0944,-0.56361,-0.61457,0.78824,-0.51262,-0.43609,-0.74215,-0.28308,0.45669,-0.027993,0.32905,-0.002472,-0.30854,0.32913,0.58422,1.0944,-0.078953,-0.69118,-0.61465,-0.53807,0.38008,-0.46157,-0.99729,2.5737,0.15057,-0.053451,-0.38508,-0.43607,-0.92067,0.55865,-0.12998,0.68622,0.89029,0.20158,-1.0228,-0.13002,-1.0993,-0.69116,1.2219,1.1709,-0.25756,-0.4616,-0.84417,-0.23204,0.50761,0.048561,-0.43599,0.32915,-0.053451,2.3186,-0.20658,-1.1502,-0.69116,0.12514,-0.2321,0.81373,0.32915,-0.078984,-0.53812,-0.64013,-0.18103,0.27808,-0.53805,-0.1045,0.76266,1.1199,0.4822,-0.74214,-0.15549,-0.28302,-0.15553,0.68621,0.12507,-0.79319,-0.002461,-0.58917,-0.64018,-0.66565,1.8851,0.12504,-0.1555,0.023065,1.0943,0.023054,-0.027993,-0.232,-0.84417,-0.28307,0.35461,1.477,-0.33408,-0.58917,-0.33407,-0.61468,-0.58909,0.12503,0.20157,0.81378,-0.002485,-0.64007,0.2271,0.71175,-0.3851,0.17609,1.7576,-1.2523,-0.02798,-0.48713,-0.30858,-0.51261,-0.64017,0.60968,0.023084,0.25257,-0.15548,0.099564,-0.10449,0.2526,0.60975,-0.58914,-0.43607,-0.30857,0.9413,0.12495,0.22713,-0.8952,-1.4054,0.94133,0.8393,0.048549,0.76273,-0.51263,0.20161,-0.41057,-0.99732,0.53317,0.074044,-0.181,-0.38507,0.023041,0.023035,0.50768,-0.027962,-0.53811,-0.079008,0.32904,0.1761,-0.027907,0.58422,-0.25751,-0.46165,0.25257,-0.15555,-0.33404,0.27817,0.43111,0.07402,-0.28302,-0.002485,-0.69122,0.17607,-0.7676,0.60974,0.89029,0.73723,-0.69118,-0.66568,-0.23205,-0.33404,-0.23205,-0.51265,1.0179,1.2729,-0.181,0.17612,-0.3341,0.17611,-0.23205,0.12503,0.35461,-0.58909,-0.38511,-0.078972,-0.43609,-0.079008,1.0178,0.5332,-0.4361,-0.5636,-0.053476,0.40565,-0.079014,0.71173,-0.18102,-0.13,-0.15551,-0.43611,0.3291,-0.38509,-0.053415,1.1709,0.25259,-0.053495,-0.232,-1.6605,0.5332,-0.30855,0.099577,-0.38508,-0.38509,0.78826,0.30361,-0.30858,-0.2065,-0.61459,2.3952,-0.76772,-0.15549,-0.69117,-0.25755,0.66075,-0.15538,0.073989,-0.10454,-0.25761,-0.33402,-0.15546,0.30359,-0.15554,0.02301,-0.078928,0.81383,1.528,-0.28308,0.43116,-0.71661,-0.7677,-0.58913,-0.53811,0.38013,-0.18104,-0.15551,0.60974,0.3291,0.17607,0.22708,-0.002485,-0.28302,-0.15551,0.7883,-0.6656,-0.002485,0.17604,0.40566,-0.25756,-0.15552,-0.56356,-0.46156,-0.20658,-0.078977,0.71173,0.66072,-0.43609,-0.30856,-0.76765,-0.3085,0.89027,0.32909,-0.86971,-0.35958,1.5025,0.023072,-0.76769,-0.51261,-0.30852,-0.38509,0.0485,-0.1555,-0.20652,-0.053464,0.50768,-0.053402,0.30352,-0.30856,0.4567,0.30365,-0.12999,-0.13001,-0.51259,0.023023,-0.078977,-0.74214,-0.33408,-0.66572,0.12504,2.5228,0.099583,0.15057,-0.20656,-0.64011,0.1251,-0.97175,-0.92079,0.58419,0.53325,-0.23199,0.48215,0.099528,-0.30851,-0.027993,0.25256,-0.25751,-0.10445,0.38011,-0.33405,0.78827,-0.30856,-0.15552,-0.10447,-0.18103,0.073989,-0.43605,0.2016,-0.10449,0.12507,0.023023,0.074033,-0.20651,-0.38508,-0.38507,0.15053,0.96675,1.0179,-0.76766,-0.15553,0.12501,-0.56368,0.099583,-0.002454,-0.027998,-0.053464,-0.25752,0.2271,0.099608,-0.46161,0.89024,-0.18106,0.048573,1.579,0.50766,-0.86972,-0.48709,-0.51265,-0.35964,-0.58918,0.048585,-0.10442,0.73724,0.15058,0.20156,0.63522,-0.28303,-0.13,-0.51262,-0.30856,-0.10452,0.32916,-0.30848,0.22708,-0.079008,-0.48714,0.43117,0.30365,-0.1045,0.048525,-0.079002,0.099564,-0.027938,0.12505,0.12506,-0.18102,0.099564,-0.079008,0.023054,-0.35952,-0.078996,0.3291,0.83927,-0.002467,-0.46159,-0.07899,-0.99725,-0.69119,0.35465,-0.28302,0.17604,0.15056,0.12507,0.15058,-0.002467,0.32913,0.50773,0.35468,0.048463,-0.33407,-0.15553,-0.1555,-0.38498,-0.078996,-0.079002,-0.053506,0.58422,0.048525,0.25259,0.27812,-0.5126,-0.56364,-0.48711,0.074033,0.78828,0.86481,0.17609,1.2219,-0.99725,-0.28308,-1.0482,-0.51265,0.22702,-0.74215,-0.12999,0.1251,0.71173,0.45669,-0.38498,-0.15553,-0.053482,0.20159,0.27803,-0.28306,0.15057,-0.38505,0.40572,0.91578,-0.35959,-0.76773,-0.35954,-0.79319,-0.66567,-0.181,0.40565,1.2474,-0.15552,-0.92067,-0.23205,-0.30861,1.6555,-0.25753,-0.18103,-0.18103,0.25262,-0.23199,-0.30853,0.63523,0.20155,-0.18097,-0.002448,0.07402,0.074033,0.023065,-1.0992,0.074026,0.0485,0.6352,-0.48708,-0.002448,0.60972,0.023047,-0.56366,-0.13,0.25262,0.074075,-0.10449,0.53318,-0.15551,-0.15554,0.2526,0.048567,0.048567,-0.18101,0.023047,-0.30852,0.35461,-0.13,-0.28302,-0.053464,-0.18102,-0.51266,2.8289,0.58421,-0.64004,-0.53821,-0.97173,0.7628,-0.56366,-0.58912,-0.30854,-0.28308,0.25262,0.023041,0.2526,0.20159,0.32915,0.55871,-0.38511,-0.15555,-0.15546,0.58424,0.35463,-0.43607,-0.94625,0.55867,-0.41061,0.50772,0.27816,0.023041,-0.46165,-0.74218,-0.43611,0.32912,0.099546,0.20161,-0.18101,1.0944,-0.20653,0.023035,-0.61465,1.6045,0.099528,-0.25755,-0.69115,0.3801,-0.6656,-0.89513,-0.51263,-0.10453,0.35464,0.40562,0.1505,0.074026,-0.027969,0.71176,0.27815,-0.43603,-0.10453,0.074057,-0.15544,0.099564,-0.027993,1.2729,-0.33409,-0.33413,-0.13001,-0.74216,-0.35956,-0.15551,0.58422,-0.41061,0.048555,0.45668,0.83927,-0.10449,-1.0738,0.17609,0.3291,0.1251,0.1251,-0.43609,-0.30851,-0.07907,0.09957,0.17609,0.40563,0.38015,-0.13002,-0.002454,-0.15551,-0.38506,-0.69115,0.27808,-0.48716,1.0433,-0.15552,-0.385,-0.027944,-0.027987,0.099595,0.45669,0.53309,0.48214,0.48223,-0.30856,-0.69119,-0.48711,-0.25752,-0.053495,0.12504,0.17609,0.023096,-0.18097,-0.35956,0.099503,-0.41059,2.1912,0.58417,0.27812,-0.5891,-0.99725,-1.1503,-1.0993,0.40567,0.074038,-0.20647,-0.027987,0.58417,0.099564,-0.48711,1.2474,0.35466,0.25261,0.66075,-0.002467,-0.56363,-0.64019,-0.51263,-0.10452,0.1506,0.27812,-0.1045,0.66072,-0.33406,0.86483,0.07416,-0.56361,-0.56369,-0.69124,0.17607,-0.23204,0.32918,0.5587,0.32912,0.12506,-0.35958,-0.38514,-0.35952,0.074069,0.048555,0.27811,0.30361,-0.053495,-0.02792,0.12504,-0.23205,-0.89522,0.15057,1.5535,0.81375,-0.69118,-0.64015,-0.48711,-0.8187,0.3802,0.45666,-0.30861,0.35462,0.20159,0.55869,0.48226,-0.25753,-1.1503,-0.13005,1.0178,0.20161,-0.078996,-0.18102,-0.23205,-0.13,0.023059,0.22712,-0.053506,-0.002467,-0.15543,0.45666,0.58417,-0.13002,0.68622,-0.20652,-0.92072,-0.58914,-0.30848,-0.002485,-0.35963,0.96681,0.099595,0.15056,0.20155,-0.20647
-0.23204,-0.23203,-0.20653,-0.079008,0.023047,0.12508,0.12506,0.12507,0.12509,0.023047,0.023029,-0.027962,-0.053482,0.048536,0.074051,-0.053464,0.048536,0.099564,0.023054,-0.1045,-0.027993,0.074062,-0.10449,-0.07899,-0.027987,0.023041,-0.10448,-0.078984,0.15058,0.12507,0.099546,-0.027962,-0.18101,0.099552,-0.053482,-0.053476,0.17607,0.074051,-0.078972,-0.002485,-0.002467,0.023041,-0.10449,0.023059,-0.002472,0.048549,0.023059,-0.053482,0.048549,0.023054,-0.10449,0.048531,-0.027962,-0.13,0.048536,-0.027969,0.074075,-0.002472,-0.027987,-0.053476,-0.002461,0.074038,-0.027974,-0.05347,-0.053482,0.048536,-0.027962,-0.027974,0.17607,0.074062,-0.053476,0.023023,-0.027969,-0.10448,-0.07899,-0.002461,-0.002454,-0.053476,0.048531,0.023059,-0.027974,0.023047,-0.10449,-0.053495,0.099559,-0.05347,-0.05347,0.22707,0.09957,0.023035,-0.13,-0.15549,-0.10451,-0.027987,-0.05347,0.023041,-0.027993,0.09957,0.099583,-0.002467,0.099564,0.048536,-0.053482,-0.027962,-0.002485,-0.05347,0.048549,0.023035,0.099564,0.023029,-0.12999,-0.002472,0.023041,-0.078984,-0.002479,0.048561,0.048555,-0.002472,0.048561,0.023029,-0.002467,-0.002461,0.09954,-0.027974,-0.002461,-0.053488,0.023041,0.048549,0.12505,0.074062,-0.10448,0.023023,0.023041,-0.002467,0.074044,-0.078984,-0.078977,-0.002467,0.12507,-0.027944,0.074044,-0.15548,0.048531,-0.15552,-0.10449,-0.078966,0.074062,0.048549,0.099577,-0.053482,-0.002479,-0.002461,-0.15545,0.32904,0.17606,-0.12999,-0.002467,-0.18098,-0.07899,0.023047,-0.002467,0.099546,-0.12999,-0.18102,0.12504,0.074051,0.099564,0.12505,0.023047,0.048549,-0.10452,0.048549,-0.10449,0.048555,0.023059,-0.053488,0.048536,0.074062,0.074051,0.048536,-0.002467,-0.10448,-0.027987,0.023023,0.074051,-0.027962,0.023041,0.048536,0.15058,0.023054,-0.07899,-0.23203,-0.027987,0.023041,0.023059,-0.002448,0.023035,0.048531,0.15056,-0.027962,0.09957,-0.10451,-0.10452,-0.078984,0.048567,0.074057,0.048536,0.023047,-0.078972,-0.33398,0.43106,0.27806,-0.002461,-0.12998,-0.053464,-0.053464,-0.12999,0.09954,0.048543,-0.05347,-0.078984,0.074038,0.074051,-0.078996,-0.027993,-0.15551,-0.10448,0.20158,0.074057,-0.027956,-0.002461,0.023035,0.048543,-0.078966,-0.053482,0.023035,0.048536,-0.078966,-0.002467,-0.027969,-0.15549,-0.027969,-0.053482,-0.078972,-0.078996,0.074044,0.048561,-0.053476,-0.078984,0.17607,0.023047,-0.027956,-0.10449,0.09954,-0.002461,-0.07899,-0.053476,0.12508,0.099564,0.048567,0.023023,-0.10449,-0.13,-0.25749,0.40556,0.074038,-0.12998,-0.15548,-0.027944,-0.027962,-0.053495,-0.002472,-0.05347,-0.05347,-0.053488,0.074038,0.2271,0.074069,0.023041,-0.07899,-0.002443,-0.078977,-0.027998,-0.1045,-0.05347,-0.053458,-0.002467,0.17607,0.099564,-0.053458,0.023041,0.048531,-0.002467,-0.078972,0.048543,0.074038,0.12505,0.074062,-0.027962,-0.07899,-0.078984,-0.10449,-0.078996,0.048549,0.074051,-0.0535,0.12507,-0.053464,0.023029,0.074057,-0.10448,-0.053476,-0.027993,-0.002467,-0.002448,0.12505,0.023035,0.048561,-0.078984,-0.027974,0.048549,-0.027974,-0.002485,0.023041,-0.027956,-0.12999,0.15054,0.15057,-0.10447,-0.10447,0.35458,0.023017,-0.15549,-0.30852,-0.053464,-0.002467,-0.002467,0.22711,0.12509,0.023041,-0.1045,-0.027993,0.023035,-0.10449,-0.078996,0.15057,0.023054,-0.027956,0.023041,-0.002485,-0.1045,-0.027969,-0.053464,-0.12999,-0.002467,0.15056,0.023059,0.15057,0.048549,0.023035,-0.053482,-0.027974,-0.20651,-0.13,-0.002485,-0.027969,0.099559,-0.002454,0.048549,0.17607,-0.079002,-0.18098,-0.053482,0.22704,0.12505,-0.12997,-0.078966,0.12507,0.074051,-0.053464,-0.20651,-0.027993,0.023029,-0.053476,-0.002472,0.09954,0.023047,-0.053464,-0.078984,0.023035,-0.002454,0.023041,-0.13001,-0.02798,0.09954,0.023023,-0.027969,-0.027944,0.074051,-0.027987,-0.002454,-0.078977,-0.002454,-0.10449,0.023023,-0.002472,0.074062,0.048567,-0.053458,-0.027974,-0.10449,0.099552,-0.002479,-0.07899,-0.12999,-0.23201,0.12504,0.25256,0.22708,-0.10445,-0.12998,-0.079002,-0.027987,-0.078972,0.074069,-0.002472,0.074044,0.099559,-0.002454,0.023035,0.048549,-0.002472,-0.002485,-0.13,0.023047,-0.027969,0.099552,0.074051,-0.078972,-0.078984,-0.027962,0.074044,-0.002467,-0.1045,-0.12997,0.12507,0.023035,0.17606,0.12506,-0.20646,0.3801,0.048531,-0.1045,-0.12997,-0.232,-0.027993,-0.027974,0.074069,0.023041,0.074051,0.048543,-0.027969,-0.078996,-0.078977,0.12504,-0.002454,0.074051,-0.079008,0.09954,-0.053446,-0.18099,-0.027969,0.048536,-0.027956,-0.12999,-0.2575,0.30356,0.22705,-0.002467,-0.027962,-0.15548,-0.10449,-0.078996,-0.10449,-0.12999,0.35461,0.15057,-0.02798,-0.15551,-0.078977,0.27811,-0.07899,-0.053464,-0.053482,-0.12999,0.15055,0.048543,-0.07899,0.27813,-0.15549,0.50769,-0.053495,-0.20653,-0.18101,-0.15551,-0.027993,0.074051,-0.002454,0.074069,-0.002461,-0.027956,-0.0535,-0.10451,-0.12993,0.35456,0.15056,0.023059,-0.18101,-0.15548,0.048536,-0.002467,-0.027974,-0.13001,-0.12999,0.3036,-0.027969,0.048549,0.22706,0.099583,-0.10452,-0.18103,0.099601,-0.23202,-0.18102,-0.027969,0.15057,-0.053495,0.3036,-0.053482,-0.05347,-0.002454,-0.053476,-0.079002,-0.002467,-0.027969,-0.25753,0.38015,0.15057,0.09957,0.12506,-0.18102,-0.002472,-0.25753,-0.23202,-0.002467,0.023023,-0.027956,0.09954,0.023041,-0.13,-0.10449,-0.25751,0.27805,0.099552,0.09957,0.074062,-0.181,-0.20651,-0.053482,0.48216,0.32914,-0.23202,-0.4616,-0.13002,-0.078984,0.023035,0.22707,0.074057,-0.12998,-0.027969,0.048536,0.023047,-0.078972,-0.053488,0.074038,-0.053458,0.023041,0.023035,0.15058,-0.027956,-0.027993,-0.15553,0.048555,-0.053464,-0.027974,0.023029,-0.10452,-0.15552,0.66075,0.074057,-0.38508,0.048536,-0.13001,-0.15552,0.22712,0.27812,-0.33406,-0.15551,-0.002454,-0.027969,0.023041,0.15057,-0.027974,-0.002461,-0.053464,-0.20648,0.38006,0.25256,-0.12998,-0.12996,-0.10449,-0.13,0.048531,0.048543,-0.02798,0.074069,0.074062,-0.053488,-0.027998,-0.078996,0.12509,-0.002467,-0.078984,-0.13001,-0.002461,-0.002448,0.099583,0.20159,-0.13002,0.45667,-0.15551,-0.18101,-0.18101,-0.078996,-0.13001,-0.027969,0.15057,0.20158,-0.027956,-0.23202,0.09957,0.55871,-0.10451,-0.078996,-0.33405,-0.07899,0.099559,-0.1045,0.074038,-0.10448,0.023041,-0.002448,-0.15553,0.15057,-0.053476,-0.12998,-0.002405,0.6352,0.32909,0.3546,-0.43609,-0.74215,-0.71665,0.43118,0.68623,-0.51263,1.1964,-0.94624,-0.51267,-1.2013,0.20163,0.78828,1.2474,-0.13,-0.33404,0.38017,0.074069,2.1147,-0.1555,-1.0738,-1.4564,-0.43602,1.4002,0.048616,-1.1501,0.96698,-0.41073,0.76255,-0.43605,-0.053495,-0.81866,-0.84418,1.8341,-0.51263,2.1147,-1.3288,0.78825,1.3239,-1.1757,-0.86987,-0.18098,-0.25738,-0.6657,1.0432,0.048438,4.1043,-1.2268,-1.9922,-0.81876,-1.8134,-0.89511,0.38004,0.50774,1.4513,-0.002491,1.4515,-0.6656,0.66076,1.5789,0.20163,1.0433,0.83909,-0.027969,-1.3033,-0.94627,-1.9154,-1.3288,-0.97163,0.27811,1.1197,0.27794,-0.15551,-0.18094,-0.43595,1.5023,2.9308,0.27794,0.38012,-4.5166,-0.48714,-1.3799,-1.4309,-0.46184,-0.35972,2.6248,0.66075,-0.027871,1.2986,-0.028023,-1.5584,-0.35954,0.32906,-0.10456,0.66079,0.27812,-0.15549,-0.86967,0.73726,-0.079057,0.71172,0.27811,0.12509,-0.6401,2.0892,-0.079026,-1.0993,-0.97175,-0.79318,-0.51265,-0.41054,0.38025,0.074008,-1.4308,1.1198,1.2218,1.5535,-0.05336,-0.81866,-0.41049,-0.35953,-0.51264,0.20158,-0.20652,-0.15556,-0.028054,-0.28303,-0.74221,0.83927,-0.89522,5.1501,1.0178,-0.027993,-1.5584,-1.737,-1.2013,-0.7932,-0.30861,0.27812,1.1198,0.27813,0.048585,-0.10438,-0.51245,0.4311,0.25256,0.35461,-0.28299,0.50757,0.15052,-0.20647,-0.002558,-0.28306,-0.25746,-0.23197,0.30363,0.38016,0.9668,-0.76775,-1.0993,-0.10447,-0.41057,-0.25753,0.63528,-2.1451,2.5227,0.53311,-0.69112,0.048604,-0.74215,0.78828,0.25263,-0.25749,0.023029,-0.18106,-0.15549,0.099552,0.17608,0.27803,-0.43597,-0.23202,1.5021,-0.56354,-0.99708,0.40561,0.48213,-0.10452,-0.7676,0.50763,0.17609,0.20153,-0.15556,-0.18097,0.099583,-0.38502,-0.43609,-1.1248,1.3494,0.96679,-0.9207,-1.2778,-0.43607,3.5431,1.5025,-1.3544,-1.3799,0.53316,-0.20653,-0.66565,-0.10455,-0.053513,-0.51258,-0.23204,-0.078904,1.834,-0.38508,0.17604,0.12508,-0.2575,-0.28303,-0.25751,-0.48702,0.35449,-0.02798,0.048506,0.53319,-0.79303,-0.283,0.76258,-0.10449,-0.7422,0.25261,1.5025,0.27809,-0.76766,-0.64015,-0.48714,-1.0483,1.1454,1.4259,-0.15556,0.86483,-0.51253,-0.33405,-1.0738,0.15057,0.20158,0.22711,-0.7167,0.30366,-0.028029,-0.10452,-0.25756,0.73729,0.27811,0.32909,-0.94617,0.15063,0.58416,0.50773,0.073984,-0.20662,-1.2267,-0.10455,0.63505,-0.10448,-0.51257,-0.181,0.22704,0.15059,-0.793,-0.76752,0.71177,-0.002583,0.81376,0.22694,-0.43612,-0.38511,-0.84426,0.20155,0.48219,-0.41051,-0.25751,-0.30849,-0.12995,0.40566,0.15059,-0.33411,-0.53818,-0.053451,2.5482,-1.0228,-1.0483,-0.76767,-0.69113,-0.35957,0.17607,0.68624,0.12505,0.2526,-0.15547,0.2016,0.023023,-0.05347,-0.15551,-0.13002,0.12504,-0.18097,-0.00251,-0.078984,0.27813,0.66074,0.20156,-0.30852,-0.76773,-0.4616,-0.76769,0.048567,1.732,0.55863,0.40567,-1.2777,-0.66563,-0.8442,0.30357,-1.0993,2.5483,0.30363,-0.28309,-0.28306,0.45669,0.40566,0.15056,-0.23196,0.15047,0.073989,-0.027962,-0.6656,0.66074,-0.64019,0.83933,-0.15547,0.25268,-0.10466,-0.18103,-0.84417,0.50767,-0.48711,-0.13008,-0.25751,-0.12996,0.83933,-0.002454,-0.33409,0.76277,1.579,-0.58914,-0.5381,-0.027993,0.27811,-0.46162,0.048536,-0.41058,-0.28301,0.074051,0.02301,-0.56361,-0.43609,0.58422,0.81376,3.3901,-1.7877,0.073917,-0.18114,-0.81881,-1.3033,0.27814,0.9159,-0.02792,-0.46164,-0.30865,0.074075,-0.76766,1.2219,0.60971,-0.71663,0.71176,0.099521,0.099473,-0.30858,-0.58908,-0.2575,-0.35957,0.17609,0.94131,-0.23205,-0.86977,1.732,-0.5636,-0.51261,-0.25756,-0.20653,0.17609,-0.35956,-0.81874,-0.23202,1.8597,0.35458,-0.76767,0.32917,-0.53812,0.22706,-1.1248,-0.71664,0.5332,0.43113,0.1251,0.099564,0.17608,0.048573,0.25262,0.22707,-0.027993,-0.25751,0.25263,-0.43614,-0.10452,-0.5381,0.023047,1.1198,0.30356,0.35469,0.12509,-1.4819,-0.66563,1.2219,0.83924,-1.0227,-0.38502,0.073892,1.1963,-0.48712,-0.69108,-0.58919,0.55875,0.43118,-0.23203,1.0433,0.50771,-0.10438,-0.23203,-0.46165,0.0485,-0.5126,-0.13004,0.68621,-0.30855,-0.38507,-0.20653,-0.13002,0.15057,0.02301,-0.10447,0.12509,-0.61465,0.35467,-0.2065,1.0178,0.43113,-0.66568,-0.23205,-0.00243,0.074033,0.30358,-1.0228,-0.38507,-0.12998,-0.30857,1.0178,-0.43606,0.58422,-0.078947,-0.3086,0.68611,-0.20657,1.5791,0.099637,-0.35957,-0.71665,-0.4361,0.81373,-0.18103,-0.15552,-0.43614,0.60969,-0.56363,-0.48711,-0.4871,0.074118,0.63522,1.3749,0.50768,-0.61457,-0.33409,-0.53817,0.60967,-0.33404,-0.436,0.53316,0.0485,-0.28315,0.4822,-0.18099,-0.76766,-0.43612,1.1453,0.96688,-0.46157,-0.15549,-1.3034,-0.58922,-0.35957,0.99236,0.55878,-0.79322,1.4004,0.048518,-0.74211,0.022913,-0.3596,0.27815,0.15063,0.04858,-0.4361,0.73729,-0.33405,-0.76763,-0.66566,1.1709,-0.10451,1.1964,-0.10451,0.022998,-0.41063,-0.4106,-0.71661,-0.23206,-0.35951,0.38011,0.48215,-0.41057,0.71177,-0.002479,-0.2065,-0.41058,0.32917,0.48217,-0.5381,-0.56368,1.9871,-0.28308,-0.46161,0.074075,-0.46159,-0.28306,0.074038,0.048573,0.38018,-0.51255,-0.1555,-0.38512,1.4004,0.27809,0.17597,-0.48714,-0.58907,-0.41054,0.76276,-0.25746,-0.58908,0.27805,0.53314,0.12507,-0.64013,0.38016,-0.23201,-0.28303,-0.13002,0.50768,-0.13003,0.63522,-0.078996,0.074008,-0.28303,-0.46157,-0.4871,-0.56364,-0.28304,0.89032,2.2933,-0.20653,-0.25753,-0.3341,-0.58921,-0.4871,0.22712,-0.15551,-0.027987,-0.078977,0.15059,0.15059,-0.028011,-0.078977,-0.027969,0.30363,0.30362,0.099595,-0.13,0.074026,0.15056,0.20156,-0.25751,-0.1555,-0.35957,-0.25754,-0.28302,0.074087,-0.33407,0.68622,-0.20655,0.45666,0.048531,-0.002497,0.86482,-0.53812,-1.1758,-0.4871,0.68621,0.20156,0.20156,-0.25747,-0.18101,-0.76763,1.2219,0.30356,-0.20654,0.2271,-0.64018,0.074087,-0.2065,-0.027969,0.38016,0.25254,-0.30854,-0.33401,-0.10449,0.074026,0.43114,0.023023,0.099552,-0.23201,-0.66561,-0.8442,0.27809,1.5025,0.48214,0.78829,-0.58917,-1.0738,0.15054,0.17611,-0.56365,-0.76769,-0.15552,0.40565,-0.027998,0.048531,0.15063,0.45668,0.86476,-0.33406,0.68624,-0.35955,-0.6656,-0.10454,0.38001,-0.053519,-0.64009,-0.56356,-0.181,0.074026,0.60973,-0.15553,1.2219,-0.53812,0.20155,-0.23208,-0.41055,-0.18103,0.5587,-0.46156,0.50771,0.25255,-0.027956,0.22708,-0.4616,-0.76774,1.1454,0.78828,0.09957,-0.46164,0.32913,0.074075,-0.18106,0.048561,-0.56362,-0.66567,-0.76769,0.81376,0.83927,0.048598,0.81378,-0.38511,-0.56361,-0.0791,0.20158,-0.66558,-0.35956,-0.89519,0.25267,0.48216,1.8851,0.40561,-0.41058,-0.81862,-0.28308,-0.41058,-0.25753,-0.20653,-0.10449,0.048506,1.0433,0.50773,-0.3851,0.17604,0.09957,-0.43608,-0.28304,-0.078984,-0.15549,0.099564,0.099564,-0.027987,0.35464,-0.20652,0.48213,-0.61466,0.53321,1.6045,-0.23201,-0.38506,-1.0228,-0.9463,0.27807,0.35464,-0.38506,-0.84416,-0.15554,0.15057,0.20161,0.89032,0.3291,0.12505,-0.3595,0.25255,-0.28301,-0.56359,-0.079008,-0.078928,0.38009,0.17607,-0.10448,0.6097,-0.35956,-0.61464,-0.48713,0.17606,-0.15552,-0.078996,-0.2065,0.58424,0.099552,1.9871,-0.71671,-1.1503,0.43121,-0.33406,0.78823,1.4515,-0.69113,0.02301,0.32908,-0.69117,-0.66565,-0.43606,0.63521,0.40565,-0.18102,-0.1045,-0.28304,1.7066,0.22711,-0.10452,-0.64016,-0.25754,-0.002479,-0.28305,0.2015,0.60969,-0.12993,-0.28305,-0.43604,-0.12999,-0.13,-0.13002,-0.027962,0.35461,0.15056,0.27809,-0.23202,-0.13004,0.38015,0.048561,-0.18103,-0.25757,-0.20652,-0.18098,-0.15555,0.22708,-0.002461,0.53322,0.074026,-0.002448,-0.61465,-0.12996,-0.69113,0.099479,0.68619,-0.53805,-0.15552,0.35461,0.78827,-0.33405,-0.28306,-0.33405,1.2729,-0.64015,-0.74216,-0.25753,0.2271,-0.3341,0.38014,0.5333,0.45659,-0.56359,-0.20659,0.12507,-0.41054,0.73729,-0.078984,0.27808,-0.33406,-1.1503,0.96685,0.58422,0.023023,-0.18103,-0.078996,0.023005,0.71176,-0.18105,-0.48712,-0.76762,-0.28305,-0.3596,1.1963,1.1709,-0.30851,-0.30856,-0.3341,-0.10452,0.15057,-0.02795,-0.12999,0.12505,0.20159,0.099546,0.09957,-0.18098,-0.053482,-0.10449,0.09954,0.17604,-0.2065,-0.13004,-0.28303,0.048543,0.17609,0.38014,0.09957,-0.053488,-0.18103,-0.23205,0.048536,-0.02795,0.20161,0.17611,0.58417,0.55869,-1.0993,-0.94624,0.32912,-0.18103,-0.15546,-0.41053,-0.10452,0.22705,0.023078,0.099588,0.25259,0.50763,0.58427,0.76274,-0.10455,-0.10455,-0.46159,-0.46154,-0.23204,0.099552,0.099564,-0.25753,-0.18101,0.099588,0.27809,0.45665,0.023005,-0.51262,0.27813,-1.1503,-0.28311,2.1912,-0.53806,0.099546,-0.64015,-0.33408,-0.028023,0.94131,-0.41054,-0.5381,-0.002497,0.53318,0.30366,-0.2065,-0.30858,-0.027993,0.048555,-0.30851,-0.10447,0.15059,0.099521,0.25258,0.15056,0.55872,-0.25756,0.27816,-0.46162,-0.46159,-0.30855,-0.5891,0.71173,-0.0535,0.15058,0.86477,0.35462,-0.38509,-0.84418,0.09954,-0.5636,-0.30856,-0.10447,0.3036,0.25257,0.58414,0.73726,-0.002479,-0.64011,-0.58901,-0.027993,0.48222,0.099564,0.12502,0.58415,-0.61467,-0.7677,0.15059,0.68619,0.099521,0.3802,-0.10448,-0.53811,-0.23207,-0.41056,-0.43606,-0.28305,0.38013,-0.002467,0.43114,0.78825,-0.078972,-0.53814,0.43111,0.48222,-0.12999,-0.079008,-0.1555,-0.07899,-0.43612,-0.13002,0.25257,0.43118,0.20161,-0.20651,-0.35952,-0.079045,-0.1045,0.074062,0.48211,0.074069,-0.13,-0.18101,-0.23201,-0.20652,-0.05347,0.40566,0.074013,0.074026,0.023047,0.83934,-0.23201,-0.81877,-0.18103,0.35465,0.78828,-0.71662,-0.15557,0.22706,0.3036,-0.41057,0.15059,-0.002472,0.023059,0.048573,-0.3851,0.27809,-0.02798,1.0689,0.023059,-0.38506,-0.38504,0.07402,0.023017,-0.20655,0.22709,-0.43609,-0.48705,0.07402,0.35461,0.22711,0.023047,0.074069,0.074069,0.048555,0.048531,-0.23203,-0.15552,0.27813,0.43119,-0.18094,-0.1301,-0.61463,0.48213,0.55869,-0.74214,-0.23204,-0.12991,-0.13004,-0.25756,0.074002,-0.10453,1.2985,0.15065,0.17611,0.099503,0.38006,0.45669,-0.79316,-0.56362,-0.23204,-0.10447,0.27806,0.074062,-0.027938,0.099601,0.048573,-0.23205,-0.41062,-0.30858,0.89032,1.0943,-0.20652,0.60973,-0.28305,-1.0993,-0.25756,0.78825,-0.28311,-0.28304,-0.25755,-0.053427,0.048585,0.22711,0.099552,0.074013,0.074013,-0.56365,0.76276,0.35466,0.30366,-0.35956,-0.30853,-0.15552,0.17607,-0.43604,-0.18105,-0.079008,-0.15551,-0.002491,0.048536,-0.053433,0.099564,0.40559,-0.12996,-0.10449,-0.078947,0.25262,0.12504,-0.74217,-0.71669,0.48212,0.94133,0.86482,-0.078977,-0.61463,-0.027969,-0.51263,-0.61467,0.43116,-0.33405,-0.61455,0.12504,0.074075,0.12507,0.2526,0.15058,0.27807,0.25257,-0.078928,-0.053451,0.023047,0.023041,0.099552,0.074013,-0.28301,-0.20652,0.023017,-0.027998,-0.1555,0.25254,-0.12998,-0.18097,0.074118,0.12509,-0.18105,-0.15551,0.20156,-0.053519,0.32912,-0.027993,0.45664,0.43117,-0.25756,0.91582,0.96686,-1.1503,-0.30849,-0.74223,-0.28311,-0.6656,0.25249,0.09954,0.22713,-0.23199,-0.07899,0.99232,0.83935,0.17612,-0.58907,-0.28313,-0.20658,-0.053495,0.048518,0.32911,-0.3085,-0.20649,-0.25756,0.17604,-0.02798,-0.12997,-0.12996,0.43111,0.2781,-0.12999,-0.12997,0.86475,-0.002479,0.023017,-0.69113,-0.61457,0.074026,0.17601,0.20155,0.20156,1.1199,0.074118,-0.48709,-0.64012,-0.30854,-0.13003,0.38013,-0.20653,0.5842,0.099583,-0.41063,-0.13004,-0.23201,0.048561,0.27814,-0.23213,-0.20657,0.53322,1.0434,-0.18098,-0.30848,-0.48711,-0.41061,0.66069,-0.10452,0.023054,-0.079002,-0.58915,-0.41055,-0.25754,1.4769,-0.43612,0.45666,-0.3595,-0.002467,0.35461,-0.25756,-0.48707,0.048531,-0.15546,-0.12997,0.32911,-0.33407,-0.30854,0.48211,0.45659,-0.002436,-0.078953,-0.56366,0.73728,-0.43597,-0.13,-0.18106,0.55866,-0.10445,0.40563,-0.00251,-0.48704,0.20151,-0.028011,-0.15549,-0.078928,0.32914,-0.18103,-0.53814,-0.25754,-0.027998,0.76277,0.25259,0.25263,-0.20652,0.023054,-0.41058,-0.23207,-0.35962,0.074062,-0.33398,-0.1045,0.32908,0.25257,0.20157,0.12508,0.074093,-0.078984,-0.18101,0.17606,0.25257,-0.027944,0.12507,-0.10447,-0.28301,-0.23203,0.048506,-0.053513,0.20161,-0.4615,0.2526,0.023059,-0.02806,0.91578,-0.71663,0.27811,-0.07899,-0.99728,0.66078,-0.43611,0.45673,-0.25758,0.55866,-0.48709,0.35465,0.048482,-0.30854,-0.28297,0.25264,-0.079021,0.12507,-0.15557,0.71172,0.023054,-0.23201,-0.18099,-0.027969,-0.2065,-0.13,-0.18104,0.32908,-0.078923,0.40565,0.20157,0.12504,-0.18099,-0.13004,-0.28311,-0.027907,-0.18093,0.38003,-0.10457,0.35479,-0.33402,-0.46161,-0.25756,0.63524,0.02301,-0.53812,-0.25751,0.074038,0.17611,-0.027993,0.48213,0.074038,-0.46161,0.15061,-0.56365,0.17611,2.0382,-0.23201,0.074075,-0.92076,-0.7422,-0.53814,-0.43609,0.07402,0.38012,0.15057,0.12507,0.15058,0.074087,0.43117,0.3291,0.6862,-0.10443,-0.10455,-0.48708,-0.64007,0.55858,0.12503,-0.1045,-0.46157,-0.41054,1.0689,-0.334,-0.35958,0.45661,-0.053495,-0.232,0.20156,-0.028018,-0.078972,-0.053427,0.074038,0.43114,-0.38505,0.22709,-0.15553,0.30364,1.0178,0.22706,0.2781,-0.30857,-0.35959,-0.89521,0.25262,-0.027969,-0.28304,-0.25755,1.681,0.048543,-0.25751,-0.23203,-0.35957,-0.35957,-0.25757,0.81376,0.12514,0.30361,-0.15556,0.048531,-0.12998,-0.12999,-0.18099,-0.18097,0.30355,0.20154,0.53308,0.12512,-0.56358,-0.23198,-0.28306,-0.25758,0.78831,-0.053488,0.25265,-0.18103,-0.3341,0.35459,0.45665,-0.10452,-0.13001,-0.38504,0.20161,0.27812,0.58421,-0.28307,-0.23205,-0.02798,0.35467,-0.283,-0.028042,0.63518,-0.1555,-0.38494,-0.13002,-0.25756,0.60963,0.20155,-0.25756,-0.027925,0.023103,-0.05347,0.68624,-0.25756,-0.66567,-0.35958,-0.12999,0.15059,0.27808,0.12505,-0.20646,-0.053506,-0.38511,-0.66565,1.9106,-0.23201,0.023047,-0.74214,0.12499,0.15055,-0.51261,0.09957,0.17609,-0.46151,-0.33406,-0.0535,-0.1045,0.68617,0.91579,-0.2575,-0.2575,-0.002485,0.023047,-0.23213,0.7117,-0.48708,-0.33406,0.023041,0.45672,-0.28292,-0.35959,-0.43613,0.12504,1.7065,0.68624,-0.51263,-0.66565,-0.25756,-0.15554,0.15056,-0.002479,-0.2065,1.0179,-0.15551,-0.18105,-0.23205,-0.00251,-0.078977,-0.30857,-0.38506,0.22719,0.5076,0.073989,0.43113,-0.078972,-0.10444,-0.43607,-0.10453,0.023047,0.5076,0.35455,-0.41051,-0.00243,0.15059,-0.5381,-0.18098,-0.30855,0.074038,0.0485,0.20158,0.099577,0.30364,-0.35955,0.023035,0.048543,-0.078972,-0.28305,-0.30856,0.02301,0.12507,0.099577,-0.30861,-0.28303,-0.46154,1.0943,0.91578,-0.12999,-0.053476,-0.30856,0.2781,0.15053,-0.0535,-0.078996,-0.58907,-0.18103,0.68617,-0.38507,-0.12998,-0.078966,0.023059,-0.10443,0.55858,0.53308,0.15057,-0.2575,-0.43602,-0.56357,-0.181,-0.20655,-0.30853,1.3239,0.35458,0.17608,-0.30858,0.048531,-0.053451,-0.5381,-0.18102,0.3546,-0.18097,-0.232,-0.30859,0.40558,2.2167,-0.002443,-0.89524,-0.99726,0.074038,0.17609,0.17612,-0.35959,-0.12999,0.074081,0.17603,0.048525,-0.078917,0.83927,-0.23204,-0.41056,-0.002461,0.12505,-0.4871,0.2016,0.68625,-0.053513,-0.41054,-0.13001,0.02301,0.12505,-0.20649,0.20157,0.53318,-0.35948,-0.33405,0.12502,-0.13002,-0.33401,0.25257,0.25258,-0.053446,0.04858,-0.027998,-0.25751,-0.07899,0.20159,0.78832,0.2781,-0.28306,-0.43612,-0.23207,-0.33409,-0.53812,0.099608,-0.48709,-0.76764,0.45668,1.1709,0.60969,0.76277,-0.35956,-0.13002,-0.51262,-0.4361,-0.5126,0.074008,0.2526,0.048555,-0.02795,0.20158,0.074087,0.27811,-0.25753,-0.7422,1.426,0.63518,-0.10455,-0.33409,-0.43608,-0.6911,-0.23203,-0.02798,-0.53807,0.78824,0.07402,-0.18103,-0.56358,0.27812,0.81376,-0.1045,0.022992,-0.28303,-0.30852,-0.20652,0.32915,0.86477,0.91575,-0.3341,-0.99719,-0.92066,-0.4616,0.40564,-0.28305,-0.15555,0.12507,0.099552,0.53316,0.27811,0.023065,0.20161,0.48218,0.30361,-0.23204,-0.56357,-0.28308,-0.23209,0.30363,-0.64014,0.60977,-0.20652,-0.51259,0.22701,0.60969,0.45666,-0.25749,-0.56357,-0.28307,0.25257,-0.28298,-0.027993,0.15057,0.2781,0.20156,-0.053495,-0.18099,-0.20649,0.25257,0.38015,-0.56363,-0.38506,0.048512,0.63522,0.60974,0.35464,-0.71668,-0.6146,0.074033,-0.3851,-0.1555,-0.232,-0.002467,0.099534,0.27809,-0.18097,-0.13001,0.68624,0.15054,-0.053488,-0.15549,0.12504,0.2526,0.20163,0.048531,-0.18109,0.12513,-0.20648,-0.10454,-0.48706,-0.002461,0.17605,0.048536,0.25251,-0.30856,-0.13,0.20163,0.099637,-0.35956,0.38012,-0.05347,-0.053446,-0.053506,0.27808,0.048543,-0.18105,-0.053506,-0.69105,0.60972,1.0433,0.15054,-0.46159,-0.48715,-0.079014,0.35468,-0.002448,-0.38511,-0.33404,-0.33402,0.07402,0.048506,0.68633,0.7118,0.20154
-0.1045,-0.25753,0.12505,0.099564,-0.15551,-0.002485,-0.027969,0.074057,0.2781,-0.23201,-0.1045,0.02301,0.15057,-0.18101,-0.15552,-0.078977,-0.027969,0.099559,0.023072,0.023041,0.20159,-0.3595,0.35451,0.94117,-0.10449,-0.61456,0.048604,-0.35956,-0.078959,-0.12998,0.074062,-0.15553,0.048518,0.074044,0.09957,-0.053464,-0.20652,0.45668,-0.002454,-0.053464,-0.079002,0.09954,-0.078972,-0.10446,-0.33404,-0.18102,0.15057,0.30358,0.38009,-0.61451,-0.23196,0.32904,-0.028036,-0.38503,0.40563,-0.15553,-0.10453,-0.20651,-0.15548,-0.053439,0.023084,0.27812,0.12508,0.023047,0.023017,0.023029,-0.283,0.048518,0.25254,0.048555,-0.10448,0.20158,0.048555,-0.23198,-0.28303,0.25253,0.023005,-0.23201,-0.053464,0.023078,-0.078977,0.074051,-0.027944,0.023017,-0.002479,0.099546,-0.15546,0.58405,-0.33399,-0.69099,-0.35951,0.66067,0.55866,-0.38511,0.45664,0.3291,-0.41056,-0.28303,-0.33404,-0.35953,-0.1555,0.099546,0.20159,0.048531,0.023047,0.023059,-0.10449,0.048555,0.15057,0.25258,0.099559,-0.181,0.048531,-0.2575,-0.38502,0.9921,0.15054,-0.33401,-0.18095,-0.10449,0.074062,-0.053476,-0.12999,-0.027944,-0.10449,0.074033,-0.002467,-0.20651,0.023041,0.3291,0.12504,-0.027962,0.15059,0.048531,-0.13,-0.12999,-0.35955,0.27812,0.023029,0.15051,0.12512,-0.38492,0.17603,-0.25754,-0.053525,0.50763,0.35448,-0.76758,-0.92054,0.45657,0.32908,0.023065,0.074051,-0.33398,0.53307,0.25258,-0.053476,-0.10444,-0.02795,0.09954,0.30355,-0.46153,-0.81851,0.25253,0.15052,0.09951,0.022986,0.048525,0.27815,0.86471,0.099552,-0.078959,-0.15549,-0.028036,-0.7676,-1.2776,0.38005,0.48206,0.2271,0.45663,0.43111,0.023139,-0.66555,0.099503,0.048512,-0.027998,0.15055,-0.002443,-0.12999,0.048549,0.22708,0.048536,-0.10449,-0.25753,0.023059,0.1506,0.17604,0.048536,-0.20653,-0.053544,0.048555,-0.053451,-0.23204,-0.07899,0.25261,-0.053513,-0.25753,0.48218,-0.10444,0.3546,0.50761,0.17611,-0.46157,-0.6146,-0.33404,-0.028023,-0.15549,0.48211,0.17604,-0.078923,-0.078953,-0.13,-0.15548,0.048561,-0.002485,0.023023,0.12506,-0.002491,-0.027993,0.22713,-0.10448,-0.18101,-0.181,0.074044,0.27813,-0.053482,-0.48713,0.1761,0.25259,0.22712,0.38016,-0.15551,-0.23202,-0.53814,-0.25754,-0.23202,-0.078984,0.32912,0.048561,-0.20647,0.48211,0.35459,0.15056,-0.15548,-0.181,-0.232,0.099564,-0.002467,-0.13,-0.027974,0.45666,-0.02798,-0.28303,-0.10452,0.22709,0.099485,-0.79305,-0.66553,0.27806,0.50766,0.2781,0.40563,0.2781,-0.53811,-0.23201,-0.079021,-0.30855,-0.12999,-0.027956,0.27811,0.38016,-0.15549,-0.35953,0.25256,0.15052,-0.2065,-0.28304,0.60974,0.40568,-0.28306,-0.02798,0.12508,-0.13002,-0.25754,-0.23204,-0.23204,0.40565,-0.18101,0.38016,-0.15552,-0.027974,-0.002461,0.12506,-0.28298,0.17604,0.048506,-0.181,-0.027956,0.17608,0.38016,-0.10448,-0.18103,-0.30856,-0.35956,0.71173,-0.002467,0.20159,-0.30855,-0.25753,0.15056,-0.15549,0.50769,-0.20653,-0.28307,-0.20652,-0.10447,-0.12998,0.12505,0.27808,0.2271,0.023065,0.048561,-0.053476,-0.053476,-0.002472,-0.078972,-0.002467,0.023017,-0.002467,0.048543,0.023023,-0.15551,-0.48706,0.20155,0.38011,-0.10445,-0.10444,-0.35956,-0.15552,0.048531,-0.053488,-0.078996,0.8648,0.023059,-0.28305,-0.15551,-0.15549,-0.002491,0.048531,0.12508,0.048555,-0.18101,-0.027993,-0.05347,0.048561,0.91581,0.074033,-0.30856,-0.38508,0.1761,-0.20653,-0.079002,-0.20652,-0.181,0.45667,0.78827,-0.33406,-0.38508,-0.25756,-0.027987,0.074062,-0.23198,0.45659,0.12506,0.023035,-0.12999,-0.23197,0.023035,0.17604,0.099552,0.048555,-0.053476,-0.078984,-0.002472,-0.027993,-0.13,0.023065,0.45664,-0.07899,-0.10449,-0.20653,-0.12999,-0.002467,-0.15553,0.15058,0.78828,0.71175,-0.3851,-0.48711,-0.20653,-0.10452,-0.053476,0.35465,0.048543,-0.002485,0.15057,-0.078966,0.023041,0.048531,0.048549,-0.078972,-0.18101,0.048525,-0.078984,-0.12999,0.023035,0.12507,0.2271,0.023035,-0.053482,-0.027987,0.074038,-0.20649,0.048487,-0.10454,0.22712,0.20162,0.25265,-0.25756,-0.33409,0.27812,-0.13,-0.25755,0.023029,-0.078984,-0.18101,-0.20652,0.5587,0.048561,-0.13,0.048536,-0.027987,0.09954,-0.027969,-0.20651,-0.053476,0.074062,0.20161,-0.10452,-0.13001,-0.10449,-0.15551,-0.18103,0.35464,-0.053464,-0.078996,-0.02798,0.048567,-0.13001,-0.002467,-0.078977,0.22708,0.30363,0.12507,0.22708,-0.41057,-0.33406,-0.48703,0.15055,0.25254,-0.078984,0.22717,-0.10448,-0.18101,0.20161,-0.18103,-0.13001,-0.48711,0.3291,0.074051,0.38015,0.55869,-0.30855,0.12508,-0.30856,-0.28305,-0.23204,-0.12999,0.048549,0.074038,0.1506,-0.078984,-0.002472,-0.10447,0.15057,0.17609,0.17607,-0.002467,-0.027969,-0.15553,-0.10449,-0.15551,0.45666,-0.28304,-0.23203,-0.15553,-0.002461,-0.15551,0.50767,-0.12994,0.12504,0.20155,0.12506,-0.23203,-0.38504,-0.002443,0.22711,0.35466,-0.15551,0.12508,-0.28305,-0.053519,0.074026,-0.13,-0.1555,-0.10446,-0.15548,0.22708,0.20159,0.35464,-0.002491,-0.35957,0.55872,-0.41059,-0.30855,-0.20655,-0.1045,-0.002448,0.048543,0.2271,0.15057,0.023017,0.15059,-0.053476,0.15059,-0.2065,-0.1045,0.2271,-0.23202,-0.20653,-0.027974,-0.23202,-0.053495,-0.002467,0.023035,-0.25754,0.048561,-0.002467,0.12505,0.68626,-0.002467,-0.027993,-0.38507,-0.30857,-0.20652,-0.12996,-0.00251,0.048531,0.78824,-0.2065,0.023054,-0.078984,-0.027974,-0.3851,-0.5126,0.43115,0.71175,0.38017,-0.35957,-0.10453,-0.18103,-0.02798,-0.027962,0.023072,0.023029,-0.13001,-0.10452,-0.20652,-0.181,0.38015,0.27811,0.023047,-0.23204,0.023054,-0.20655,-0.13,-0.053476,0.023023,0.1761,0.023035,-0.053439,-0.002479,-0.13001,-0.28304,0.15058,0.048549,0.023035,-0.33406,0.12514,0.17602,0.22707,-0.181,-0.25751,-0.23201,-0.2065,-0.05347,0.12504,0.43111,-0.027962,-0.18099,-0.078996,-0.002454,-0.12999,0.50768,-0.079008,-0.078984,0.074075,0.38014,-0.35961,-0.1045,-0.20651,0.2016,0.63521,-0.18101,-0.1555,-0.25754,-0.43612,0.048567,0.099564,-0.027974,0.35466,0.30361,-0.0535,-0.20653,-0.10449,0.20159,-0.10452,-0.12998,0.023041,-0.15548,0.074062,-0.002479,-0.33399,0.25256,0.12505,-0.027969,-0.35953,-0.41058,0.8648,-0.1555,-0.30858,-0.51256,-0.51261,0.20155,1.0178,1.5025,0.32913,-1.0483,-0.81875,-0.25753,-0.18101,-0.53812,-0.38506,0.89029,0.02301,0.38014,-0.15548,-0.38505,0.20155,0.91579,0.89031,0.55874,-0.232,1.0943,-0.58916,-0.84418,-1.2779,-0.002521,-0.69124,-1.7114,0.074106,-0.43605,3.7217,-0.18106,2.3697,1.1709,-1.1503,0.81359,0.35443,-1.2523,-1.7368,-0.66556,-0.20659,0.81378,0.53318,-0.28284,-0.94604,-0.15559,1.9103,1.5531,-0.97166,-1.7369,-0.64013,-0.69117,3.6961,2.829,-1.0482,-1.0993,-1.482,-0.23204,-0.23204,-1.0993,-0.71673,-1.482,2.1147,2.8291,0.78787,-0.053348,-1.8644,-0.71663,-0.15543,1.936,0.17597,0.17607,0.17633,-1.5841,0.15051,-1.0482,-1.0483,3.288,-0.81866,0.73733,-0.46161,-0.053476,-0.76767,1.1453,-0.13007,-0.92055,0.7883,0.32895,-0.13012,1.1199,-1.7879,1.9362,0.68614,-1.2267,-0.9463,-1.2524,-0.46175,1.7577,-0.9718,-1.584,0.048647,-0.74218,1.375,4.3849,0.25245,-0.97165,-0.13034,-2.8845,-1.8643,-1.4308,0.83914,0.83922,3.3135,-0.74225,-0.10459,0.30356,-0.18098,0.48218,-1.7623,-0.8951,0.76266,0.58417,0.35473,-0.002577,0.5586,-0.10459,-0.51257,-1.6094,0.53315,2.5995,-1.6857,0.3545,-0.66587,0.81371,-0.23193,0.45662,-0.79325,-0.71664,-0.23193,0.96677,0.048433,-0.89516,0.63504,-0.89499,0.86472,0.71179,-0.002503,-0.86978,2.4463,0.15061,-0.89525,0.58414,-1.3799,-0.5891,-0.53813,-0.89522,-0.48708,0.32911,-0.18105,0.2781,2.3952,-1.2012,-1.2776,0.91574,0.76267,0.022907,0.09951,-0.86955,0.60952,0.023103,0.9923,-0.61471,-0.64014,-1.4053,-1.0738,-0.23196,-0.078703,3.8998,-1.2011,0.022961,-0.6402,-1.5074,-1.0738,-0.1301,0.023114,-1.1246,0.27807,1.5279,0.78818,2.9819,-0.38514,-0.71671,-1.3798,-0.76769,-0.41055,1.681,-0.18105,0.73736,1.2219,-2.6039,0.71167,0.25242,-0.48719,-0.053506,-0.079021,0.55866,-0.58903,-0.35957,-0.18091,0.89018,-0.25754,-0.46128,0.48205,1.7063,0.17609,-1.3798,-1.4054,1.528,1.2475,-1.1248,-0.99727,-0.58915,0.43115,0.02301,0.32915,-0.23204,-1.0482,1.9616,0.02298,0.48193,-1.1759,0.023304,0.27822,-1.0482,-0.5892,2.2674,0.43132,-1.8897,0.30359,0.83908,0.048415,-0.053476,0.15058,-0.12999,0.25259,-0.20647,0.099577,-0.41055,0.12513,-0.028085,-0.079002,-0.23201,0.43117,0.71179,0.22708,-0.25758,-0.99723,-0.56359,0.78823,-0.41064,-0.74218,-1.0228,2.3442,1.6556,-0.64015,-0.64015,-1.3799,-0.76773,-1.1503,0.78825,1.7065,-0.94621,-0.61467,-0.43609,1.6811,0.60969,-0.35957,0.68609,-0.76774,-2.0173,-0.5381,1.9104,0.12506,1.0689,-0.30866,0.63543,1.1961,-1.4561,-0.58905,-0.46159,0.15054,0.15052,-0.69102,0.2014,0.55861,-0.33399,0.35472,0.12509,-0.58915,0.96695,0.6861,0.58416,-1.0482,0.25267,-0.66573,-1.3289,-1.6094,-0.15549,-0.66565,0.35464,0.55871,1.4005,-0.51262,1.7065,-0.43607,-0.13,0.048487,-0.002472,-0.2065,-0.86967,1.7576,1.5024,-1.0993,-0.23202,-0.46155,-0.51268,-0.64024,-1.4308,-0.84411,1.2219,0.83928,0.40566,-0.46154,0.25246,0.58421,-0.6145,0.27811,-0.002472,0.94128,-0.25756,0.7628,0.50765,-1.2522,0.15045,-0.10453,0.25262,-0.053458,-0.74223,0.40563,-0.48702,-0.53811,-0.46157,1.0179,-0.079057,0.15056,-0.61465,0.35462,0.68623,0.68624,1.0688,-0.79318,-0.97172,-0.74215,-0.43614,0.78823,-0.5891,-0.79316,1.9871,0.40565,-0.41056,0.71175,-0.74215,0.60964,-0.61474,-0.61458,-0.51254,-0.35956,0.022992,0.15054,0.58417,0.78827,0.30364,-0.25748,-0.66561,-0.28307,-0.43613,-0.13002,0.27809,1.2219,0.73731,-0.4361,-0.3851,-0.18097,-1.0482,-0.71668,-0.35959,1.9871,0.78832,0.78825,1.7065,-1.635,-1.635,-0.10458,-0.9973,-1.0992,-0.25731,-0.30849,0.099613,1.9613,1.3238,0.12513,-0.51254,-1.0227,-0.002405,0.048531,2.0636,-0.12999,-1.3287,0.17591,-0.28305,-0.92071,0.45667,0.15057,-0.74216,-0.51258,0.43117,0.1506,-0.00251,0.048512,-0.56361,-0.43606,1.0433,0.38013,1.8596,-1.3799,-0.51262,-0.30861,0.50776,0.43114,0.38016,-1.0228,-0.38492,-0.053592,0.60967,0.22702,-0.02792,-0.35951,-0.43612,-0.13,0.48219,0.60976,-0.53817,-0.25756,1.0178,0.99223,-0.028047,-0.92058,-0.84406,0.35456,0.60965,0.20153,-0.58917,1.1709,-0.35961,-0.15553,-0.10447,-0.51256,-0.71665,-0.43609,0.32916,1.2474,-0.027938,0.22702,-0.10453,-0.56359,0.099668,0.074075,0.55869,-0.5382,-0.66562,0.12506,-0.30858,0.35463,0.38013,0.53318,1.0179,-0.20652,-0.76769,0.45668,-0.43609,-0.51263,-0.13001,1.1199,-0.23213,-0.89507,0.38003,-0.23202,-0.53809,1.2219,-0.10452,0.22712,0.40565,-0.74217,-0.43604,0.25254,-1.1248,1.6811,0.2526,-0.15556,-0.51259,-0.28305,1.3494,-0.18106,-0.538,-0.20653,0.048458,0.15055,0.1506,-0.18103,0.68625,-0.79318,1.1454,0.25263,0.86478,-0.71671,-1.1503,-0.079045,0.43113,-0.15546,-0.61458,0.15051,0.35455,0.55873,0.25263,-0.23203,0.94133,0.78826,-0.30849,-0.58914,-0.30854,0.45666,0.38014,0.30356,0.048518,-0.1045,-1.3798,-0.81868,-0.53812,0.17609,-0.002479,-0.20652,1.5025,-0.07899,0.20161,-0.43606,-0.74223,0.30359,-0.10449,1.7066,0.55872,-0.20654,-0.25757,-1.1248,1.8341,-0.38508,-0.64012,-0.41063,0.43116,-1.3287,0.12491,0.2781,0.91579,-0.078996,-0.58907,-0.10447,-0.64013,-0.25749,0.048573,2.1399,-0.33405,-0.92062,0.32918,0.48216,-0.61463,-0.053482,-0.10444,-0.51264,0.38016,-0.18109,0.22712,-1.0992,-0.23208,-0.33404,-0.002485,2.5993,-0.53812,-1.0483,0.66074,-0.74214,-0.89529,0.5587,0.048641,-0.002467,-0.20658,0.38016,-0.46159,-0.38506,-0.028005,2.1147,-0.28304,0.48216,-0.81871,-0.66567,-0.23208,0.048573,0.48219,0.40563,-0.15548,-0.51262,-0.38506,-0.25756,-0.10452,-0.18105,0.71182,0.12508,0.55864,-0.15549,-0.35953,-0.079021,-0.28309,0.35463,0.1251,-0.181,0.30355,-0.2066,0.5333,-1.2268,1.9616,-0.20652,0.89033,0.4312,-0.69122,0.58419,-1.6605,-0.71669,-0.79321,-0.30852,0.50768,0.38013,0.023023,0.27813,-0.20651,-0.28303,0.15058,0.17612,-0.23195,0.30357,0.176,0.96679,-0.053458,-0.41057,-0.69112,0.35472,-0.43608,-0.61467,1.0178,-0.51262,0.66076,0.55872,0.63517,-1.0738,-1.4563,-0.69118,0.43116,0.68623,-0.23202,-0.86968,1.2218,0.48216,0.15065,-0.97175,0.94136,-0.10451,-0.41058,0.89032,-0.41063,0.12502,-0.13,0.4057,0.074087,-0.53815,0.27809,0.73723,0.3036,-0.61465,-0.76769,-0.66565,-0.71669,0.38017,0.66074,1.0179,0.45663,-0.18106,-0.25753,-0.69116,0.09957,0.94129,0.048555,-0.6146,-0.23202,-0.10449,-0.71665,0.94124,-0.28304,0.17609,-0.053488,-0.46159,0.35463,0.48219,0.22711,-1.0483,-0.76768,0.9158,0.89031,-0.5637,-0.81874,-0.053409,-0.38503,0.17606,0.53319,-0.25752,-0.13001,-0.10451,0.27815,0.50767,0.099559,-0.002472,-0.41052,-0.43609,0.76271,0.40565,-0.69116,-0.71673,0.50768,-0.027962,-0.61465,0.89032,-0.43609,0.15057,-0.18102,-0.10452,-0.13002,0.32917,-0.079002,-0.28305,-0.10448,-0.1555,0.48219,-0.002472,0.074038,-0.20653,-0.15553,0.45669,0.15057,-0.35961,-0.64015,2.2167,-0.13002,-0.66562,-0.56364,-0.30858,0.17609,-0.58907,-0.86975,0.6352,1.0689,1.0943,-0.33409,-0.38511,-0.1045,0.12515,-0.35951,-1.1503,-0.61468,-0.56371,-0.079033,0.30364,-0.15547,0.81378,0.20161,0.1251,0.73725,0.074038,-0.33406,-0.41063,0.94136,-0.53812,-0.46155,1.2983,-0.15553,-0.35958,-0.69116,-0.6911,0.20164,0.02301,0.35464,0.099564,0.32918,-0.002472,0.5332,-0.28308,-0.61465,-0.20648,0.78831,-0.1301,-0.89524,-0.20653,1.0944,-0.002399,-0.48713,-0.20653,-0.28305,-0.28303,-0.43609,-0.1045,-0.86972,0.94129,0.30363,2.0382,-0.30857,-0.76769,-0.64015,-0.30858,-0.20652,-0.46161,-0.002485,0.55869,-0.15549,0.63519,1.4514,-0.38508,-0.79314,-0.56359,-0.079021,0.20156,-0.078947,-0.79318,-0.23205,0.94125,1.7065,-0.25757,-0.58915,-0.48709,-0.15553,0.17609,-0.13001,-0.64014,0.4822,-0.48711,2.4463,0.55867,0.099552,-0.9463,-0.89515,-1.1758,-0.53812,2.3442,1.4515,-0.4871,-0.58914,-0.23209,-0.053531,-0.56352,-0.053464,-0.002461,0.55869,0.12507,0.78829,-0.053495,-0.10451,-0.027987,-0.027974,-0.079002,0.22711,-0.15552,-0.35962,-0.10448,-0.43597,0.20158,-0.15553,0.048445,1.4769,-0.79313,0.99235,0.099613,-0.7931,-0.79323,-0.18114,-0.35964,-0.23199,-0.35958,-0.10449,0.12508,0.27811,0.38016,0.20162,0.38016,0.25262,0.35463,0.20159,-0.002472,-0.10449,-0.181,-0.18103,-0.43611,-0.79319,-1.0483,1.1199,0.53318,1.4259,0.40565,-0.35956,-1.3799,-1.3799,1.3495,-0.20665,-0.74217,-0.48706,-0.053476,0.074008,0.86481,0.25266,0.20159,0.32913,0.3291,0.27808,0.099552,-0.027962,-0.1555,-0.18102,-0.56354,-0.18103,0.12503,-0.002479,0.074038,-0.28305,0.68626,0.2271,-0.81875,-0.71668,-0.053495,0.32917,0.53319,-0.41058,0.91578,0.66071,-0.33407,-0.92071,-0.81868,-0.1045,-0.12999,-0.23204,1.2729,0.074075,0.048482,0.27812,0.2781,0.0741,0.20163,0.074002,0.40563,-0.079021,-0.51262,-0.66562,-0.56358,-0.38514,0.2781,-0.46157,1.5791,-0.20651,-0.64019,0.048506,-0.002485,0.45672,1.7066,-0.69118,-0.35962,-0.46164,1.9106,-0.92073,-0.56362,-0.64018,-0.41056,-0.48708,0.27814,1.0178,0.58422,0.022992,0.048469,0.074051,-0.46155,-0.002412,-0.64015,-1.0993,2.7523,0.45668,-0.027974,0.074033,-1.2524,-1.4564,-0.30856,-0.46157,-0.078984,0.17606,0.099564,0.43118,0.81378,-0.1045,0.60974,0.12507,-0.10453,0.023029,-0.38503,-0.28305,-0.10449,0.53317,0.78828,0.40566,-0.58919,0.86478,-0.71667,-0.56365,-0.74217,-0.35958,0.048525,-0.027962,0.023072,0.22712,0.30363,0.30361,0.25261,-0.027938,-0.05347,0.023023,-0.002461,0.02301,-0.02798,-0.02798,-0.0535,-0.12999,-0.027987,0.27805,-0.079014,-0.97168,-1.2778,0.074075,2.8289,2.3951,-0.25762,-0.66568,-1.635,-1.4819,-0.84423,-0.48711,0.023047,0.099601,0.50768,0.63524,0.53321,0.50768,0.38017,0.30362,0.15057,-0.05347,-0.18103,-0.053513,-0.20652,-0.25754,-0.13002,-0.13,-0.18101,-0.20652,-0.25751,-0.18103,-0.053488,0.09954,0.30363,-0.05347,-0.13002,-1.5839,1.7065,1.4514,1.375,-1.3543,-0.48716,-0.46164,-0.81871,-0.51262,-0.25757,-0.12998,0.15059,0.53316,0.12511,0.76273,0.30364,0.048567,0.15059,-0.002461,-0.15549,-0.35959,-0.002485,-0.1045,0.76277,0.15058,-0.79322,0.22711,-0.64014,-0.43606,-0.64015,-0.84426,-0.078977,-0.002454,0.5587,-0.053549,0.074069,-0.10439,0.27807,0.99237,0.40565,0.17604,-0.15551,-0.23204,0.099608,-0.28301,-0.35958,-0.33403,-0.027974,0.38013,1.3239,-0.28309,0.45667,0.30364,-0.76771,-0.71668,-0.30855,0.074038,-0.6657,0.074051,0.17611,1.324,-0.46159,-0.002485,-0.30855,0.48218,0.76274,-0.53811,0.099552,-0.25756,0.2526,1.4515,-0.74214,-0.61465,-0.81868,-0.74221,0.45656,0.43115,-0.10451,0.68613,0.66073,0.048585,-0.5636,-0.69113,0.17612,-0.38501,-0.33409,0.17607,-0.18101,1.5025,0.7627,-0.1045,-1.2013,-0.79323,-0.13007,0.94131,0.38017,-0.35957,-0.181,-0.15549,-0.15549,-0.13001,0.15057,0.81377,0.023029,-0.4361,-0.28303,-0.48705,-0.41055,0.048561,0.9413,-0.18106,0.48216,-0.35961,0.53318,0.22711,-0.15548,0.27813,-0.5636,-0.69113,-0.33411,0.048531,0.023103,0.20159,-0.18101,0.27806,-0.13002,1.6556,0.25259,-0.002503,-0.79319,-0.41058,0.40568,-0.51261,-0.71668,-0.56364,1.0689,0.27812,0.17607,-0.38509,-0.48712,0.27813,-0.25751,-0.86973,1.0944,-0.56364,1.0689,0.2016,0.48219,-0.2321,-1.4053,0.40558,-0.25754,-0.12999,0.023041,-0.10447,0.09957,0.20161,0.38011,0.32905,0.074062,-0.18095,0.22712,0.12504,-0.4616,-0.74217,-0.15555,1.8595,-0.84415,-0.35955,-0.74221,2.5228,0.27811,-0.97178,-1.1758,-1.5584,-0.81871,0.17607,2.0126,0.43116,-0.12998,-0.079021,-0.18101,-0.43604,0.048525,0.66071,-0.027962,-0.18101,-0.33402,-0.053519,0.12507,-0.30849,0.12505,1.3494,-0.38513,-0.18108,-0.35956,-0.027962,-0.35957,-1.2778,1.3239,-0.20653,-0.18102,0.023041,0.68626,0.58419,-0.46159,-0.28306,-0.15549,0.12509,-0.38507,-0.10458,-0.64017,1.8596,0.99235,-0.89523,0.5587,-0.28305,0.22703,-0.86973,-0.66565,0.048604,-0.30857,0.35461,-0.25753,-0.1045,0.83929,0.074062,-0.002448,0.099564,0.048555,0.12506,0.09954,-0.53811,1.2984,-0.35956,-0.53811,-0.38508,0.43105,0.22705,-0.053421,-0.76766,0.40567,1.324,-0.97176,-1.3799,-0.79321,-0.43609,-0.18103,1.1454,0.40565,0.12505,0.048585,0.099595,0.35459,-0.078953,0.17612,-0.28302,-0.48714,0.25268,-0.10456,0.099497,-0.23205,-0.74219,1.63,0.32915,-0.61462,-0.89522,-0.35959,-0.38502,-0.20651,-0.13002,0.53317,-0.23204,0.86478,0.074057,-0.33405,1.2474,-0.053476,-0.1045,0.40565,-0.79324,0.89028,-0.10448,-0.48711,-0.74218,-0.46154,-0.28303,-0.027969,0.38011,0.25259,-0.02798,0.20161,0.40565,0.30363,-0.13,0.38016,-0.28295,0.25255,-0.25756,-0.00243,-0.078972,-0.51261,-0.2321,0.20155,-0.15554,-0.05347,-0.61455,0.09957,-0.30857,2.1657,0.60972,-0.64016,-0.69115,-0.38506,0.30363,0.86479,-0.13001,-0.18103,-0.28306,0.55872,-0.078977,-0.53807,0.12505,-0.28306,-0.20655,-0.027998,0.27812,-0.12999,-0.48706,-0.28311,0.66079,1.0943,-0.28307,-0.3086,-0.25754,-0.38505,0.78827,-0.002454,0.38013,-0.078928,-0.1555,-0.078984,-0.64013,-0.15557,-0.48719,-0.74221,3.186,0.53318,-0.58914,-0.58913,-0.35954,-0.23203,0.099559,0.27811,0.048549,-0.10448,-0.1555,-0.15552,0.20157,0.27813,1.3494,-0.76772,1.4515,-0.71662,-0.89529,-0.25761,-0.89527,-0.53809,0.0741,-0.53809,0.50765,1.5535,-0.15551,0.27811,-0.71663,0.68621,0.30363,-0.028005,0.074062,-0.15555,-0.56366,-0.25743,0.15059,0.17609,-0.46156,0.55874,0.38008,-0.30858,-0.053513,0.15056,0.15057,-0.48711,-0.41058,0.1251,0.81381,0.43117,-0.46161,-0.6146,0.048531,0.5332,-0.15553,-0.13,0.15058,-0.35959,0.048536,0.38011,0.099559,-0.027969,-0.053476,-0.12999,0.1251,-0.181,-0.2575,-0.10451,0.89024,-0.53813,0.48216,-0.23204,-0.053409,-0.002485,-0.53817,1.528,-0.41055,-0.56363,-0.25758,0.048506,-0.53815,-0.51255,0.023017,0.022998,0.25256,0.30361,0.32915,0.17611,-0.053439,-0.15551,0.023023,0.023059,0.5587,0.099626,0.048469,-0.58916,-0.53815,-0.33403,1.1199,-0.002491,-0.56361,-0.56366,-0.35959,0.20157,0.15059,0.023017,0.27812,0.099546,-0.05347,0.048555,-0.07899,0.1251,0.22707,-0.23203,0.20166,-0.28308,0.71173,-0.61464,0.22712,0.073989,-0.25761,0.50769,-0.46157,0.91586,-0.38506,-0.56361,-0.48711,-0.35955,-0.76773,0.89029,-0.053476,1.1709,-0.18105,-0.28306,-0.41057,0.63523,0.17606,0.15056,0.023059,0.2271,-0.283,-0.10447,-0.027974,-0.002472,-0.053476,-0.078984,-0.15549,-0.028029,-0.002503,-0.027969,0.15059,0.48221,1.1199,-0.61464,0.68622,-0.81872,-0.86975,-0.28308,-0.43612,-0.33407,0.89034,0.32913,0.32913,0.1251,-0.181,-0.027998,0.023041,0.32915,0.43122,-0.6146,-0.053544,0.15052,-0.079008,-0.15553,0.27814,-0.027938,0.12504,-0.07899,-0.2575,-0.53812,-0.84423,-0.10451,0.94132,2.3443,-0.69113,-0.41057,-0.18106,-0.89528,0.30358,-0.4871,0.04858,-0.20652,-0.027998,0.048604,0.22707,0.30368,0.27808,0.074057,0.099521,-0.20653,-0.053476,-0.23202,0.76275,0.25262,-0.84414,0.2271,0.35461,-0.51267,-0.23203,0.22709,-0.48712,-0.69112,-0.10453,0.71168,0.58424,0.9669,-0.64016,-1.4819,1.0944,0.2271,0.12508,-0.41057,-0.15553,-0.23202,0.074013,-0.002503,0.22708,-0.181,-0.20652,0.09957,0.58421,0.3802,-0.76769,0.073989,-0.7422,0.074106,0.78829,-0.10453,-0.46163,-0.23205,0.94129,-0.028005,-0.25753,-0.15554,-0.002472,0.023054,-0.6146,0.3547,-0.002479,0.38011,-0.33412,-0.33408,-0.43609,0.25267,0.94131,-0.027969,-0.48713,-0.64017,-0.002497,-0.8442,0.20161,0.94133,-0.23203,0.25261,-0.079008,-0.079026,-0.20653,-0.18101,-0.23202,-0.10449,-0.28298,0.68622,0.40565,-0.053482,-0.18103,-0.15548,0.35458,0.20158,-0.002461,-0.027998,-0.69119,0.48221,-0.3085,0.12507,-0.15553,-0.41059,0.099546,-0.002485,0.32915,-0.38507,0.25262,0.074062,-0.20655,1.3239,0.023005,0.43118,-0.38504,-0.48707,-0.10448,-0.4361,-0.25755,-0.13002,0.2526,-0.002448,0.7118,-0.053525,-0.38514,0.099552,0.35463,-0.28305,-0.56363,0.074087,0.048549,-0.053506,0.25259,-0.30855,0.7628,-0.33412,0.099564,0.43124,-0.23204,-0.00251,0.25259,-0.38507,0.20159,-0.028023,0.15055,-0.18099,-0.38509,-0.33402,0.099644,1.1199,0.099534,-0.18103,0.5842,-0.35961,-0.48707,-0.30855,-0.13002,0.17608,0.58419,-0.12997,-0.66565,0.15057,-0.334,1.0177,0.048482,-0.053525,0.023084,0.22717,-0.56358,-0.23208,-0.48706,-0.61459,-0.5891,0.074013,0.96683,0.45666,0.73721,-0.25754,-0.002454,0.30366,-0.10453,-0.23202,-0.35956,-0.35954,-0.15554,-0.56363,0.32913,0.3036,0.074057,0.68627,-0.35956,-0.20652,-0.20654,0.25259,0.40564,-0.53811,-0.69113,-0.35957,1.2984,-0.33407,0.099595,-0.56364,0.27811,0.35462,0.30362,0.023054,-0.64011,0.22713,-0.05347,0.55867,0.68619
-0.027993,0.048543,0.048567,0.048549,0.023023,-0.078972,-0.027969,-0.079002,-0.02798,-0.078977,0.074062,-0.079008,-0.002467,-0.053464,-0.15551,0.63521,-0.05347,-0.23204,-0.20652,-0.053476,-0.078977,-0.078984,0.099546,-0.027956,0.074062,-0.053482,-0.002467,-0.027962,-0.053482,-0.18101,0.20157,-0.12998,-0.053488,0.048536,0.099564,-0.15548,-0.002461,-0.027993,-0.027993,-0.027974,-0.20647,0.20156,0.12504,0.12503,0.12508,-0.053439,-0.078984,-0.002467,-0.027974,-0.10449,-0.053482,0.023047,0.048555,0.20155,0.12505,-0.15548,-0.1045,0.17609,-0.053458,-0.28305,-0.079008,0.048543,-0.13,0.12505,0.12507,0.27812,-0.053495,-0.23202,-0.10449,0.15054,-0.05347,-0.027962,-0.053488,0.023059,0.023035,-0.027987,0.048549,0.023035,0.099559,0.2526,-0.23203,0.023023,-0.12999,-0.027969,0.099552,0.17608,0.074062,-0.027993,-0.002467,-0.078972,-0.13,-0.002461,-0.20647,0.30355,0.22707,-0.15548,-0.078984,-0.027962,-0.10449,0.09954,0.048549,-0.053476,-0.002467,-0.002467,0.074038,0.048561,-0.002485,-0.12997,0.12503,-0.053482,-0.053495,-0.053476,-0.053476,0.17607,0.1761,0.023029,-0.002461,-0.18101,-0.002485,0.048512,-0.053506,0.048585,0.048555,0.023047,-0.10449,-0.027969,-0.027962,-0.002479,-0.05347,-0.0535,-0.05347,-0.027974,0.023035,0.023059,0.048536,-0.053464,-0.027974,-0.078984,-0.027974,-0.10452,0.20159,0.048549,-0.15551,-0.053482,0.023035,-0.027969,-0.053476,0.20157,-0.1045,-0.12998,-0.079002,-0.002448,0.048536,0.12509,0.12505,-0.33399,0.27804,-0.002472,-0.079008,-0.18098,-0.002443,-0.053482,-0.15549,-0.1045,0.12507,0.048543,0.099559,0.023059,-0.18102,-0.02798,-0.053476,0.023023,-0.053464,0.099546,0.12509,-0.027987,-0.002454,0.35462,-0.078996,-0.07899,-0.027969,-0.053476,0.048536,-0.12996,0.15053,0.023047,-0.05347,-0.053476,-0.078972,-0.027987,-0.027969,0.074057,0.15056,0.12507,-0.078972,-0.053482,0.074026,0.023029,-0.12998,-0.18101,-0.078984,0.023072,-0.053464,-0.053482,0.30363,-0.10447,-0.13001,0.15052,-0.053495,-0.28303,0.30364,-0.10447,-0.20651,-0.07899,0.099559,0.048561,-0.053488,-0.10449,-0.079002,0.12508,-0.002485,-0.10449,-0.002443,-0.027974,0.12505,-0.027956,-0.13001,0.099546,0.074057,-0.10449,0.17604,-0.12999,-0.027969,0.12506,-0.05347,-0.15551,0.048531,-0.10448,-0.15551,0.074038,0.023054,-0.027974,0.099583,-0.053482,0.02301,0.32912,-0.078972,-0.20653,-0.10449,-0.15549,-0.10448,0.099552,0.09957,0.023054,0.074057,0.074038,-0.053464,-0.10449,0.12503,-0.027962,-0.10449,0.023035,0.099564,-0.027956,0.048531,-0.027974,0.023047,-0.002472,-0.2065,0.074044,0.17604,0.20157,-0.10447,0.2016,-0.23201,-0.13,-0.02798,-0.027956,0.048549,-0.053488,-0.12999,0.63521,0.023029,0.023047,-0.002479,-0.078996,-0.12999,-0.053495,-0.07899,-0.053464,-0.053482,0.12505,-0.053464,0.023029,0.25263,-0.053476,-0.12998,0.17604,-0.078996,-0.05347,-0.07899,-0.078972,0.074044,-0.027962,0.15056,0.023059,-0.002485,-0.002454,0.074044,-0.10449,-0.027974,-0.078984,-0.002454,0.074038,0.074075,0.074044,0.048536,-0.027987,-0.10451,-0.12997,-0.12999,-0.3595,0.32908,0.25258,0.048543,0.023059,-0.1045,-0.078984,-0.002467,-0.0535,-0.027974,0.099546,0.048543,-0.02795,-0.053488,-0.07899,-0.002461,0.099564,0.023059,0.2526,-0.12999,-0.15553,-0.12999,-0.07899,0.023041,0.023059,0.074051,-0.027974,-0.053464,-0.07899,-0.053482,-0.002454,0.048536,0.099552,-0.078972,-0.053495,-0.053458,0.048531,-0.15551,-0.18102,0.50768,0.023047,-0.07899,-0.027993,0.048561,-0.053476,-0.027987,-0.053488,-0.027962,-0.12999,-0.13,0.25262,-0.002448,-0.002491,-0.027969,-0.027969,-0.002472,-0.053464,-0.13,0.023017,0.023041,-0.053482,-0.078977,0.27808,0.50765,0.07402,-0.053464,-0.283,-0.053495,-0.053495,-0.053464,-0.053476,0.099564,0.023047,-0.027974,0.099546,-0.078977,-0.1045,0.074038,0.048555,0.048543,0.023035,0.048555,-0.027962,0.048531,-0.027974,-0.078959,-0.027969,-0.079002,-0.02798,-0.053464,0.023041,0.023029,-0.027962,0.15058,0.074038,0.048549,-0.25752,-0.23202,0.074013,-0.02798,-0.078972,-0.053476,0.32912,0.15058,0.15059,-0.13001,-0.20654,-0.078996,-0.10448,-0.18102,0.099559,0.17611,0.048525,0.15057,-0.027974,-0.027987,-0.10447,-0.18101,-0.13,-0.027974,0.023023,0.099588,-0.12994,0.38007,0.09954,-0.002479,-0.053464,-0.20651,-0.027987,-0.10447,0.023047,0.12507,-0.053464,-0.078984,0.15054,0.048536,-0.15551,-0.07899,-0.10447,-0.07899,0.074044,0.048573,0.099564,0.12507,-0.027962,0.074008,-0.078977,-0.25754,0.074069,0.12509,-0.053476,-0.13,-0.078972,0.074038,0.023059,0.09954,-0.002467,-0.078984,-0.1045,-0.027962,0.12506,0.074057,-0.002472,0.15057,-0.053476,-0.002472,-0.10448,0.023023,-0.027969,-0.078977,0.074044,0.074062,-0.002454,0.023047,-0.078984,-0.15549,-0.18102,-0.18101,0.30364,-0.002467,-0.053495,-0.002467,-0.002467,0.074038,-0.002467,-0.053476,-0.07899,-0.002479,0.099564,0.20161,0.023041,-0.053495,-0.1045,-0.027974,-0.079002,-0.10449,-0.027962,-0.002467,-0.053482,0.15059,-0.18096,0.40557,0.20155,-0.053464,-0.078953,-0.10447,-0.078996,-0.13,-0.078972,0.023029,0.023029,0.09957,-0.002461,-0.07899,-0.002461,-0.027969,0.074038,-0.079008,-0.12999,0.099588,-0.078984,-0.28307,0.81378,-0.20652,0.17609,0.023029,-0.181,-0.18101,-0.10451,-0.15551,-0.12999,-0.002448,0.074038,0.074057,0.1506,0.09957,0.12505,-0.002472,-0.35958,-0.053495,0.20159,0.1761,0.40564,0.074057,-0.2065,-0.18102,-0.18103,-0.15551,0.12509,-0.053488,-0.10452,0.099546,0.074062,-0.027956,0.099564,0.023029,0.023035,0.048543,-0.12999,0.074033,0.074062,0.023054,0.12505,0.12507,-0.078966,-0.33407,-0.15553,0.32915,-0.23203,-0.10452,0.30364,0.048536,-0.027974,-0.10452,0.40566,-0.181,-0.13002,0.15059,-0.15551,-0.027993,0.048549,-0.078966,-0.053458,0.17606,-0.18096,0.20154,0.12505,-0.41059,-0.12999,-0.078959,0.58422,1.3749,-0.53813,-0.99726,0.20161,-0.18103,-0.33407,0.60974,-0.41058,-0.66569,-0.71668,-0.48713,0.074051,0.27811,0.99232,2.6503,-0.86969,0.32917,0.099588,-1.686,-0.51256,-0.53812,-0.58916,-0.002443,0.27811,0.12504,-0.15546,-0.69126,-0.64019,1.9617,0.63531,0.71168,-0.28308,-0.33407,-1.2778,-1.9155,1.9359,0.20158,0.48231,2.5228,-0.43594,-1.3289,-0.46172,0.22701,-0.25761,-0.79313,0.50765,5.4051,-1.5329,-0.84422,-2.0431,-3.1396,-0.053647,0.048433,0.73723,-0.053573,-0.28308,-0.18094,0.71179,3.7981,3.7726,-0.15554,-1.4819,-1.3033,-1.3798,-1.5074,-0.20668,-0.028109,-0.56361,-0.74214,1.324,0.58425,-0.33408,1.0688,-0.10446,2.7524,-0.48715,-1.1504,-2.2471,0.43118,1.7576,1.8596,-1.1248,-0.002448,-0.69111,-0.84427,-0.71674,-0.56359,-0.53814,0.2271,0.43119,0.40564,0.22712,0.048567,0.30361,-0.15553,0.83923,1.3495,0.20162,-0.46163,-0.28308,-0.71671,-0.64019,-0.078984,-1.0481,-0.48703,0.35454,0.27803,-0.10453,0.074051,-0.053519,0.68624,1.1709,0.27815,-0.81871,-0.46161,-0.33409,0.48225,0.27817,-0.43613,-0.81876,-0.69115,-0.74216,0.40565,1.1964,0.023054,-1.1248,1.1709,0.99231,0.02301,-1.2523,-0.71671,0.66064,-0.10449,-0.46155,-0.18101,-0.027938,0.17611,0.17608,0.2271,0.40561,0.17604,0.32913,-0.027956,-0.053513,-0.35954,-0.10451,-0.053519,-0.25753,-0.48708,0.50765,-0.33402,-0.66562,-0.30867,3.0329,1.0179,-0.18098,-1.0483,-0.71666,-1.0228,-0.7167,-0.15553,1.2729,-0.28305,-0.12999,-0.10447,0.30359,-0.15555,-0.23203,-0.002418,1.1964,0.17611,-0.23204,-0.25764,-0.20646,-0.23187,-0.00254,0.048487,0.12504,-0.079002,-0.15553,-0.028005,0.07402,-0.43607,0.27817,0.25267,0.53318,-0.30856,-0.38507,-0.33407,0.45665,0.5332,-0.99713,0.12485,0.20158,0.023108,0.40567,0.15062,-0.76765,-0.38514,-0.18101,0.1761,0.17607,0.3036,0.20157,-0.002448,-0.15549,-0.53806,-0.028029,0.48213,0.66071,1.4515,-0.9207,-1.4053,-0.99728,-0.35955,1.579,2.1146,-0.99729,-0.71667,-0.81876,0.17607,-0.94607,-0.2065,0.12501,0.58418,0.17604,0.78825,-0.61465,0.78833,1.0943,-0.078959,-0.15549,-0.89518,-0.10452,-0.079014,0.12505,-0.0535,-0.30855,-0.18098,0.22704,-0.002485,-1.0226,0.22704,0.81368,0.58425,0.40561,1.0178,-0.94619,-1.0993,-0.002485,-0.079002,-0.027993,-0.23203,-0.23202,-0.028036,0.91582,0.78828,-0.25754,-0.48708,-0.56362,-0.23207,0.30363,0.38016,-0.053519,-0.41056,1.5025,-0.078947,-0.86973,-0.64016,-0.64011,-0.15555,-0.23204,0.20153,0.5587,-0.33404,-0.002467,-0.23202,0.58423,-0.002423,0.32909,-0.51257,0.17601,0.58415,-0.23198,0.35464,-0.0535,-0.053544,-0.02792,-0.9716,0.2015,0.40551,-0.1555,-0.25748,-0.15547,-0.053446,-0.053458,0.60971,0.58422,0.048525,-0.48711,-0.61462,-0.053513,-0.38511,0.50768,1.0434,-0.20647,0.099473,-0.58919,-0.53814,0.5332,-0.002448,-0.2575,-0.46161,-0.23203,0.30363,0.40567,0.2781,0.20159,0.8648,-1.0482,0.2016,-0.079026,0.55865,0.66071,-0.12999,-0.66569,-0.4871,-0.12997,-0.30856,0.099546,-0.002461,-0.33404,0.76277,0.32907,1.2729,-0.69111,-0.15555,0.7627,-1.5838,0.074075,0.68616,-0.35954,-0.20647,0.43115,-0.28304,0.43115,-0.76766,0.32905,-0.41058,0.09957,-0.002467,0.30368,0.3291,-0.51261,-0.18103,-0.23202,-0.15553,0.099559,0.38015,-0.33407,0.074057,0.20155,-0.078972,-0.10448,-0.10452,-0.28306,-0.25753,0.94134,0.50769,1.5535,-0.61467,-1.0482,-0.8187,-0.6912,-1.0483,1.3749,0.099552,0.074062,-0.078953,0.7627,0.25259,0.55874,-0.28303,0.023023,-0.181,-0.43604,0.27805,0.02301,0.43119,-0.232,-0.41059,0.45667,-0.10449,-0.23204,-0.56362,-0.23202,-0.053495,0.50768,-0.23206,0.25261,0.73711,0.35454,-0.56347,-0.79304,1.1454,-0.13002,-0.053537,-0.002443,-0.23205,-1.3544,1.2474,0.22707,-0.20653,0.023035,0.09954,0.023035,-0.20649,-0.33398,0.32907,0.22713,-0.25754,0.58417,-0.58913,0.86482,0.68626,-0.48705,0.048451,-0.07907,-0.6146,0.048506,-0.13002,-0.46154,-0.48711,-0.12999,1.1964,1.273,-0.3086,0.074038,-0.61463,-0.61464,-0.079008,0.27812,-0.002461,-0.002467,-0.28303,-0.3596,0.38011,-0.027993,0.66078,-0.5381,0.30363,-0.23201,-0.38507,0.60969,0.023035,-0.63997,1.4767,-0.18106,-1.5072,-0.25749,0.048536,0.2526,0.20158,-0.15553,-0.20652,-0.38508,0.83928,1.2729,-0.30852,-0.10456,-0.5891,-0.15555,-0.46161,-0.23203,0.38017,-0.053495,-0.13001,-0.64013,0.48217,0.3546,0.60971,-0.46156,-0.18097,0.048506,-0.23202,0.27821,0.048531,0.0485,-0.33411,-0.81865,0.15049,0.20159,0.20164,0.099583,1.3239,-0.078972,-0.53815,-0.81872,-1.0482,0.12512,0.15052,1.3239,0.25259,-0.48712,-0.28299,0.60974,0.17607,-0.30859,0.3292,-0.4361,1.1707,0.35459,-1.2522,-0.33395,0.15054,0.78821,-0.23213,-0.51265,-0.69115,-0.46156,0.68624,0.023041,-0.053433,0.074075,-0.43604,-0.3086,0.91576,0.48217,-0.027974,0.48216,-0.58912,0.25251,0.35471,-0.51263,-0.027938,-0.84422,-0.002472,0.27812,-0.02795,-0.35956,0.099552,0.15059,0.35464,0.074044,0.1761,-0.56365,0.40568,-0.46153,-0.053544,-0.028005,-0.64017,0.074051,0.58421,0.50769,-0.79315,0.8393,-0.05347,-0.58913,0.94119,-0.1045,-0.334,-0.15549,-0.15551,-0.23202,0.32915,0.50764,-0.58907,1.0942,-0.30853,-1.2011,-0.58916,0.22701,0.3036,0.15062,0.66076,-0.79321,-0.56366,0.55872,0.099521,1.1199,-0.15543,-0.18102,-0.13001,-0.0535,-0.10449,-0.002491,-0.18101,0.023041,-0.12999,0.53318,0.40569,-0.43608,-0.64015,1.2474,-0.13005,-0.46161,-0.84422,-0.20646,0.30358,0.81376,-0.46161,-0.84419,-0.15551,0.20157,0.55872,-0.2065,-0.10449,0.048561,-0.25756,-0.10445,0.35463,0.12505,0.68615,0.27811,0.099613,-0.53811,-0.35956,-0.15553,-0.33405,-0.15548,0.5587,-0.28307,0.27808,0.15056,-0.53812,1.477,0.1251,-0.23209,-0.38508,-0.84419,0.48218,0.099552,-0.027925,0.58421,-0.23207,-0.027962,-0.20655,0.27811,0.022998,-0.5381,-0.5891,-0.28302,0.99237,-0.28301,0.02309,0.53306,-0.38511,-0.48705,0.35463,0.2016,-0.8187,-0.84424,0.66075,1.8341,-0.71668,0.2271,-0.33399,0.40555,0.15054,-0.35954,-0.81862,-0.027974,0.32904,0.50765,0.35464,-0.61452,-0.20653,-0.15552,0.86477,-0.002485,0.53318,0.02301,-0.35959,-0.33406,-0.35954,0.15061,-0.25753,0.66068,-0.027962,-0.23205,-0.74219,0.15057,0.43119,0.32913,0.27813,0.22707,0.35461,-0.5381,-0.86972,-0.25763,-0.10446,0.50783,-0.43608,-0.6657,0.60967,-0.028036,-0.1045,-0.23205,0.50767,-0.20641,0.68626,1.4514,-0.28303,-0.25757,-0.33405,-0.23202,-0.18099,0.7628,-0.30851,-0.84422,0.35464,-0.25753,-0.18107,0.22705,-0.078996,0.2781,-0.25753,-0.079014,0.023072,1.8851,0.3291,-0.053446,-0.79322,-0.79322,-0.002448,-0.2831,-0.10453,0.20163,-0.078984,0.43117,-0.12996,0.15057,-0.053488,0.099552,-0.23204,-0.23202,-0.18101,1.2219,0.78826,-0.53812,-0.61467,-0.232,-0.002472,-0.35957,0.50767,-0.64011,0.022974,0.58416,-0.053482,-0.23201,-0.35954,0.074106,0.023029,0.73728,0.60968,-0.23205,-0.35962,-0.10449,-0.35954,0.25259,-0.1045,-0.28298,0.12498,0.53306,-0.053427,-0.15543,0.27813,-0.41053,-0.6146,-0.027993,-0.25759,1.1709,0.074062,-0.46159,-0.35961,-0.46164,0.074057,-0.002485,0.22708,0.3547,-0.64011,0.09957,-0.33407,-0.23204,-0.15544,0.099473,0.63515,0.86476,-0.5891,-0.51257,-0.25751,-0.15553,0.099534,-0.078996,0.76278,-0.053495,0.53319,-0.02798,-0.30858,-0.25756,-0.25748,-0.33404,-0.20653,-0.15553,0.60965,0.83928,0.27815,0.22701,-0.61465,-0.76769,0.71181,-0.23205,-0.002472,0.023072,-0.64015,-0.74214,0.71176,0.91582,0.73726,-0.10456,-0.385,-0.10459,0.17596,-0.13001,-0.43604,-0.10444,-0.053458,0.02301,0.074062,-0.4871,0.074051,1.4004,0.40561,-0.76753,-0.23202,-0.46165,-0.38509,0.2526,0.58418,-0.18107,0.78828,-0.20655,0.20156,-0.79321,0.22713,0.55869,-0.5126,-0.41055,-0.10449,0.074044,0.60969,0.099608,0.2526,-0.15552,0.17609,-0.002472,0.12507,-0.20654,-0.13001,-0.25752,0.12505,-0.20653,-0.053513,0.68627,0.40563,-0.10445,-0.2575,-0.18106,-0.46157,0.15054,0.17604,0.76276,-0.053458,-1.1502,0.55876,1.0431,0.17594,-0.56352,-0.41054,-1.0482,0.43114,-0.10452,-0.1045,0.12507,0.53321,-0.23199,0.2016,0.7372,-0.053476,-0.30856,-0.13002,-0.25755,0.17607,-0.30853,0.27813,-0.35959,0.48215,0.55874,-1.0737,-0.002491,-0.28311,0.30361,0.12509,-0.28306,-0.18101,-0.66559,0.53318,-0.05347,-0.079014,0.20158,0.048555,-0.28308,0.43113,0.20159,0.15059,-0.053476,-0.53809,-0.38508,0.20157,1.375,0.50771,-0.66567,-0.53815,-0.10454,-0.25753,-0.23201,-0.002461,0.099552,-0.18098,-0.02795,-0.028023,1.3239,0.32913,0.048585,-0.5126,-0.027998,0.20158,-0.71668,-0.8442,-0.20654,-0.28306,-0.48702,-0.41048,0.38011,0.89007,0.074033,0.38022,0.78835,0.023084,-0.5126,-0.56364,-0.33409,-0.23204,0.048555,-0.58916,0.27815,0.2527,0.55862,-0.28308,-0.2831,-0.28308,0.023072,-0.078966,-0.15549,0.023078,-0.28306,0.78827,-0.23204,0.35465,-0.078941,-0.13001,0.023041,-0.13002,0.20156,-0.20651,-0.41063,0.68629,-0.002436,-0.15557,-0.15553,0.50771,-0.13002,0.023041,-0.027993,0.63526,0.17614,0.12504,-0.23208,-0.43613,-1.0227,0.4312,0.074044,-0.48707,-0.38497,0.66061,0.099503,0.22715,-0.13004,0.73721,0.15054,-0.53803,-0.028011,0.63515,0.04858,-0.078947,-0.25751,-0.41056,-0.25757,0.55872,-0.15552,-0.7422,0.71176,-0.84411,-0.33405,0.89026,0.94125,0.25254,-0.46168,0.66075,-0.30855,-0.53813,-0.35954,-0.02792,0.50768,0.15059,0.25256,0.048506,0.22709,1.0689,-0.48706,-0.76767,-0.30854,-0.13,0.63521,-0.18106,1.0688,-0.53814,-0.3086,-0.25757,0.074173,0.78824,0.02301,-0.71665,-0.35961,0.53317,-0.18103,-0.436,-0.23201,0.12509,0.20159,0.17604,0.099601,0.20164,0.35459,0.17606,-0.30858,0.15059,-0.15545,-0.71665,-0.48716,0.25259,0.1761,-0.13,-0.079014,-0.002485,0.76275,1.0434,-0.46161,-0.38504,-0.6146,-0.4616,-0.38506,-0.38507,0.58417,0.60977,0.66063,0.45659,-0.89521,0.50774,-0.66558,-0.35959,0.022974,-0.10445,0.17607,-0.18104,0.20159,0.15062,0.32917,-0.053513,1.2219,-0.33412,-0.43605,-0.20644,-0.10452,-0.078984,0.15062,-0.30858,1.0689,-0.46161,-0.33405,-0.10452,0.15051,0.22706,0.04858,0.099595,-0.12994,0.30365,-0.23207,-0.25756,0.91578,-0.41061,0.30362,-0.66566,0.023054,0.68623,-0.10452,-0.66562,-0.23208,0.048506,-0.35957,0.89038,0.48218,-0.30857,-0.053476,-0.23204,-0.41056,-0.027974,-0.15554,0.83925,0.4312,0.48214,-0.66565,-0.15548,-0.078996,-0.38506,-0.20649,-0.002491,-1.1503,1.7576,-0.1045,-0.64014,0.94121,-0.25761,0.27819,-0.23205,-0.23199,-0.41054,-0.20649,0.17601,0.4567,-0.76763,-0.079039,0.12502,1.63,0.38015,-0.53809,-0.81866,-0.86964,0.099491,0.22704,-0.079008,-0.078953,-0.078972,1.0178,0.32916,-0.20655,-0.71666,-0.053488,-0.23199,0.12505,-0.027993,-0.25751,0.20158,0.3801,-0.25757,-0.84418,0.048561,0.2271,-0.18103,0.27809,-0.64011,-0.002399,0.6606,0.40564,-0.58904,-0.2575,0.176,-0.23204,0.2016,-0.28303,0.27831,1.1453,0.17605,-0.41063,-0.6146,-0.94611,-0.46156,-0.20658,0.78821,0.15051,0.48222,-0.10452,-0.181,0.40563,-0.18108,0.12508,-0.33402,-0.99719,2.4464,0.27791,0.81357,-0.20636,-1.7368,-0.76771,-0.94629,0.09954,0.25264,-0.33405,0.074033,-0.3086,1.2728,0.048555,1.3494,-0.25748,-0.46154,-0.15555,-0.56362,1.0178,0.099588,0.22712,-0.56362,-0.33404,-0.84421,0.27811,-0.41058,1.5025,1.0944,-0.41064,-0.46164,0.22708,-0.25748,-0.028029,-0.41059,-0.43607,-0.25752,0.4822,-0.48708,0.81376,0.30358,0.50763,0.048592,-0.078972,-0.13002,-0.10452,-0.027871,0.43113,0.1759,-0.5126,-0.94608,-0.46154,-0.41064,0.76275,-0.33401,0.30356,-0.079021,-0.002472,-0.078972,1.1963,0.53313,0.27812,-0.58905,-0.51261,0.91578,-0.20655,-0.64015,-0.58911,-0.53812,-0.25756,-0.02798,0.3036,-0.25757,0.27813,0.86479,1.2729,0.2526,-0.51261,-0.56366,0.22715,-0.58911,-0.35957,0.6097,-0.33406,-0.71665,1.1964,-0.00251,-0.10453,-0.30855,-0.84416,-0.027969,0.43113,0.38017,-0.18104,-0.48713,-0.30847,0.99218,-0.25756,-0.3085,0.023084,-0.027993,0.60966,0.20162,-0.41054,-0.69114,-0.13,-0.002546,0.074008,-0.25753,-0.30856,-0.64015,2.4463,0.32912,0.023059,-0.13004,-0.56362,-0.66565,-0.33409,-0.25751,0.12502,-0.10444,0.25263,-0.181,0.50764,0.50769,0.83925,-0.51262,0.66068,0.55867,-1.2012,-0.74204,0.73722,-0.23197,-0.56367,-0.35964,-0.13004,0.15054,0.86475,0.12507,-0.81866,0.30358,1.4259,-0.43607,-0.2575,-0.30848,-0.38508,-0.38507,-0.20656,-0.15548,0.25252,0.0485,1.783,1.1964,-1.2521,-0.97169,-0.053537,0.02298,-0.64011,-0.028042,0.15049,-0.28302,-0.25751,-0.002461,1.0434,-0.41057,0.63516,0.4312,-0.18103,-0.4106,-0.12999,-0.86963,0.48205,0.91579,-0.53805,-0.35961,-0.15549,1.1454,-0.053519,0.023029,0.048573,0.48216,0.073935,-0.28304,-0.94605,0.35464,0.15052,-0.10455,-0.15546,0.048567,0.074013,0.32907,-0.078953,0.63532,-0.079093,-0.35961,0.20166,-0.46155,-0.53811,-0.43612,-0.25754,0.43116,-0.35951,1.0432,0.1506,0.04861,-0.71663,0.38008,0.53316,-0.38508,-0.64015,-0.58914,-0.3596,0.48217,-0.13001,0.25254,-0.002448,-0.48694,0.12511,0.32907,0.50761,0.17601,-0.64008,-0.12994,-0.18108,0.94128,0.2526,0.38016,-0.3851,-0.15549,-0.2065,-0.53814,-0.92071,-0.18098,1.8084,-0.53809,-0.18103,0.27819,-0.30851,-0.25755,-0.028005,0.048518,0.58417,-0.5381,1.1199,0.63518,-0.13,-0.002497,-0.10453,-0.25754,-0.28303,0.023047,0.38014,-0.53812,0.76277,-1.0227,-0.7166,1.4769,-0.002558,-0.51257,0.023041,-0.71667,1.0689,0.074038,0.22711,-0.33409,0.15059,-0.28309,-0.35954,-0.30852,0.35465,0.94133,-0.28304,-0.18105,-0.10452,0.12502,-0.48702,0.38008,0.22698,0.27815,-0.00251,0.2016,1.4771,-1.1757,-0.30861,-0.15556,0.2526,-0.028011,-0.1555,-0.13,-0.25757,-0.43604,-0.027944,0.48216,-0.74218,0.73721,0.3036,0.55877,-0.46164,0.86474,-0.41044,-0.99721,-0.38508,-0.028036,0.60966,0.30353,-0.2321,-0.41047,-0.30849,1.0689,0.63523,-0.25754,-1.0483,0.86479,0.20163,-0.33405,0.20152,0.30355,0.074062,-0.20647,-0.20652,-0.23205,-0.38503,0.17615,0.40564,0.68625,0.20155,-0.43609,-0.25751,-0.13004,-0.15552,0.074062,0.45668,0.15057,0.76269,-0.33413,-0.61458,-0.027974,-0.48708,-0.1555,0.27806,-0.23197,-0.20651,0.83926,-0.078972,-0.23203,1.1199,0.38011,-0.58916,0.17606,-0.51257,-0.71659,-0.53824,1.0433,0.35465,0.074087,-0.28302,-0.13,-0.53814,0.40551,0.12504,0.25262,-0.56358,-0.46154,0.55873,0.58417,-0.28306,-0.64014,-0.25756,0.30368,0.4311,-0.12999,-0.38503,-0.3341,0.32915,0.12507,-0.28302,0.50762,-0.15554,0.023096,-0.079014,1.0944,-0.13001,-0.30856,-0.23198,0.35459,0.35468,-0.51262,-0.51267,0.38018,-0.48713,-0.38504,-0.5381,1.0179,1.0943,0.27806,0.023035,-0.56365,-0.43607,-0.25754,-0.71663,0.2526,0.53307,-0.053397,0.55876,-0.25756,0.60967,0.20157,-0.76766,0.074033,-0.20654,0.45667,0.074136,0.9923,-0.86967,-0.81866,0.30355,-0.053537,-0.10453,0.25259,0.22708,-0.20648,0.1251,-0.078984,-0.053439,0.53318,0.76273,-0.18101,0.20159,-0.61461,-0.53815,-0.56365,-0.43606,0.45666,-0.30853,0.45671,1.1199,0.63513,-0.43612,-0.58916,-0.38503,-0.64015,-0.64017,0.73728,0.53311,-0.84412,0.43134,0.022961,0.66062,0.58426,0.27799,0.12501,-0.027956,-0.74212,-0.56356,-0.30855,-0.283,-0.078959,0.35463,0.50762,0.074051,-0.13004,-0.20654,0.63523,-0.33404,0.17606,-0.07891,0.099668,0.35461,-0.18103,-0.05358,-0.079057,-0.86974,-0.10447,1.0178,-0.25757,0.099528,-0.385,-0.79305,-0.181,-0.10456,0.20151,0.48219,0.55869,1.0688,-0.25751,-0.30854,-0.53806,-0.46164,0.53315,-0.002534,-0.56362,-0.33399,-0.12998,0.60972,0.20163,-0.002472,-0.18106,0.32915,-0.18101,-0.6401,0.15048,-0.053506,-0.15555,-0.28303,0.94134,0.40566,-0.15551,0.074111,0.25258,-0.053458,-0.35956,-0.25758,-0.35963,-0.079021,0.25278,0.048622,0.48212,0.15053,-0.79319,-0.48706,0.63514,0.12506,-0.23204,-0.28303,0.12503,0.35462,0.55871,0.68625,-0.48705,-0.51257,-0.18106,-0.74211,-0.53807,0.43096,0.83928,0.15059,-0.20647,0.12511,-0.30855,0.30363,-0.30856,0.023029,1.2474,0.099497,-0.56364,-0.5636,-0.35955,0.55866,0.96672,-0.38497,-1.2522,0.073971,-0.10453,0.07402,0.48207,-0.078972,-0.41052,-0.4871,-0.25751,1.9616,0.048604,-0.028018,-0.4106,-0.13004,-0.23207,-0.1555,-0.2065,-0.28303,0.20155,0.20155,-0.05347,0.17612,-0.33406,0.12507,-0.41054,-0.41054,0.27808,0.45656,-0.84412,-0.10449,0.023023,-0.10453,0.53318,1.1964,-0.4361,-0.74216,-0.46159,-0.25757,-0.10449,0.048549,0.15056,-0.13,-0.027901,1.0178,0.78824,0.68622,-0.71661,-0.43611,-0.38511,-0.18104,-0.15551,-0.33404,0.27808,0.30361,-0.25746,-0.28298,0.48207,0.3036,-0.35948,-0.002516,0.15052,0.074087,-0.74209,0.17604,0.40561,-0.078966,-0.15551,-0.51262,0.38017,0.15056,0.35465,-0.027998,0.023029,-0.43607,-0.20656,-0.07899,-0.51258,0.20158,-0.51252,0.86474,0.76263,-0.078959,-0.12994,0.074069,-0.69107,-0.20655,0.22697,-0.15547,-0.56345,0.20153,0.38006,-0.46161,0.17606,0.30361,0.55862,-0.053544,0.35468,-0.30851,-0.10447,-0.61459,-0.07899,-0.13005,-0.23204,-0.13,-0.28305,0.68625,0.81378,0.048536,-0.33406,-0.7677,0.09951,-0.02795,0.30362,0.023065,-0.23201,-0.23204,-0.15553,0.2271,0.68624,0.074051,-0.43606,-0.38511,-0.30853,-0.10448,1.0689,-0.002467,-0.15556,-1.4054,1.2218,-0.81856
-0.027993,0.074051,-0.10447,-0.002467,0.048543,-0.002454,-0.027974,-0.1045,-0.053464,0.048555,-0.078996,0.25259,-0.002461,-0.05347,-0.181,-0.002467,-0.002479,-0.002467,-0.078996,-0.1555,-0.02798,0.099559,0.12506,0.099564,0.023047,-0.07899,-0.027974,0.023035,0.048531,0.023035,-0.18101,0.074057,0.12508,0.17605,-0.28299,0.20155,0.099546,-0.05347,-0.2575,-0.15549,-0.053476,0.27806,0.023041,-0.078972,0.15058,-0.002461,-0.12999,-0.15551,0.023023,0.074051,0.074069,-0.027974,0.17607,0.15058,-0.002454,0.023047,-0.002467,-0.1045,-0.33405,0.17609,0.074044,-0.053488,-0.181,0.12505,-0.027969,0.15059,0.12507,-0.027993,-0.20652,-0.07899,-0.0535,-0.027962,0.048543,0.099552,0.048567,0.023041,0.30362,-0.053482,-0.18102,-0.05347,-0.15549,-0.10449,0.023035,0.15058,0.023041,-0.027987,-0.002472,0.023035,-0.053495,-0.10447,0.048555,-0.053482,0.048531,0.15056,0.12508,-0.078959,-0.078996,-0.02798,0.048543,-0.002472,0.023035,-0.027962,-0.002479,-0.053464,0.2271,-0.1045,-0.053464,-0.027969,-0.027993,0.048549,-0.10447,-0.027969,-0.02798,0.15057,0.27812,-0.181,-0.053495,-0.13,0.023029,0.048549,-0.10449,0.048536,0.12507,0.023059,0.074051,0.048543,0.048536,-0.053488,-0.20651,0.074051,0.12505,-0.053464,-0.053482,-0.002461,0.15058,-0.10448,-0.1045,-0.002472,-0.027969,-0.027974,-0.027987,0.048543,0.074075,-0.002467,0.074044,-0.18101,-0.15551,-0.002472,0.074044,0.048543,-0.181,0.27812,0.12506,0.20159,-0.12998,-0.30856,-0.15554,-0.13,-0.078972,0.12506,0.20158,-0.002461,-0.12998,0.074051,0.17607,-0.002436,-0.002497,-0.027993,0.023041,-0.053482,-0.1045,-0.078984,-0.15549,0.5842,0.099546,0.023054,-0.053482,-0.10452,-0.20653,0.32913,0.30361,-0.1045,-0.23201,0.023023,0.023059,-0.078984,0.023029,0.074051,0.68626,0.048531,-0.002491,-0.23202,-0.1045,0.15057,0.12507,-0.18102,-0.10451,-0.20653,-0.23202,-0.13001,1.0944,-0.05347,0.58422,-0.20653,0.099564,-0.48713,-0.43609,-0.41059,-0.15551,-0.28302,0.25258,0.15058,0.30365,0.5332,0.45666,0.30363,-0.15553,-0.25753,-0.4361,-0.5126,-0.28305,0.023035,0.074069,0.048531,0.12507,-0.02798,-0.30851,0.7627,0.12503,0.30366,-0.12999,-0.13002,-0.15549,-0.25752,-0.12999,-0.078966,0.048536,0.53319,-0.23204,-0.25756,-0.18101,-0.15552,0.099588,0.38014,0.074093,0.17604,-0.079039,-0.35959,0.1251,-0.15548,0.35469,-0.1045,-0.23202,0.099559,-0.18102,-0.002467,0.023023,0.12508,0.09954,-0.25748,0.30354,0.15054,-0.12998,0.099577,-0.053458,0.074069,-0.18102,0.27813,-0.15553,-0.38505,-0.027987,-0.15553,0.074057,0.12506,-0.078966,0.17607,0.35462,-0.181,-0.1045,-0.078984,-0.078972,0.43115,-0.1555,-0.053476,-0.078996,0.048549,0.15058,-0.12996,0.048518,-0.00251,0.023017,-0.13001,-0.18098,-0.053451,-0.027969,-0.002472,-0.12999,0.12507,0.048531,0.17609,-0.002479,0.074069,0.17607,-0.13004,1.0688,-0.38506,-0.38506,-0.41059,-0.58912,0.12507,-0.078996,0.048561,0.023041,0.17607,0.17608,0.12508,0.099564,0.15057,-0.027974,-0.10449,-0.13,0.12507,-0.027944,-0.13001,-0.078996,-0.10448,-0.078984,-0.027987,0.22704,0.048549,-0.20649,-0.12999,0.17609,0.22712,0.32912,-0.053488,-0.25754,-0.002472,-0.30856,0.048616,0.12499,0.023017,-0.23198,0.099588,0.099546,-0.10449,-0.12999,0.25262,-0.1045,-0.181,-0.002485,0.023041,-0.05347,-0.002472,0.074051,-0.078972,-0.027969,0.074038,-0.1045,-0.002448,0.12505,-0.078984,-0.078972,0.048549,0.074057,-0.078972,-0.12998,0.12503,0.023035,-0.078972,-0.027974,0.023047,0.074069,0.048525,0.048543,-0.13,0.15059,0.2781,-0.027969,-0.18101,-0.33407,-0.0535,-0.05347,-0.053464,-0.15549,-0.12999,0.38016,0.38013,0.20159,-0.33405,-0.1045,-0.002472,-0.02798,-0.12999,0.17607,0.20158,-0.053476,-0.181,-0.1045,0.074038,0.074062,0.023047,0.12508,0.17608,0.074038,-0.0535,-0.1045,0.048555,-0.181,-0.20652,-0.027993,0.048543,0.074075,0.048543,0.15056,0.099564,-0.002472,-0.02798,-0.02798,-0.027969,-0.12999,-0.05347,0.023035,0.27811,0.074062,-0.20652,-0.28302,0.17603,0.38012,-0.25754,-0.25751,-0.053458,-0.18101,0.048531,-0.20652,0.1761,-0.002454,0.15057,0.22708,-0.002472,-0.027993,-0.002461,0.023059,-0.12999,-0.15549,-0.078972,0.099559,0.25259,-0.18102,-0.28303,-0.078977,0.09954,0.12505,-0.02798,-0.181,0.074062,0.1251,-0.053476,-0.15551,-0.002485,-0.1045,-0.20653,0.38016,0.099583,-0.002467,0.023023,0.12506,-0.053488,-0.13001,0.023023,0.023054,-0.23203,-0.002479,0.25262,0.58421,-0.15551,-0.20655,-0.20652,-0.20651,-0.2065,0.023029,-0.027974,0.2271,-0.15549,-0.053464,-0.07899,0.074051,-0.002443,-0.053495,0.2781,0.25261,-0.02798,-0.28307,-0.18101,0.023035,-0.181,-0.181,-0.074646,-0.023631,-0.10015,0.15057,0.099564,0.023035,0.099552,-0.027956,-0.18103,0.023047,0.048561,-0.15551,0.023041,0.023047,-0.07899,-0.1045,-0.10449,-0.027974,-0.002485,-0.002454,-0.002454,-0.02798,0.023047,-0.078972,-0.027993,0.17608,-0.053464,0.074033,-0.027962,-0.15549,-0.20652,-0.18102,0.32915,0.30361,-0.10448,-0.181,-0.0535,-0.027974,-0.027956,-0.002479,-0.15551,0.27813,-0.15551,-0.027974,0.074075,0.2781,0.074051,-0.002448,-0.15553,-0.13,-0.181,-0.13,-0.053495,0.38014,-0.078972,-0.18101,0.074038,-0.002443,0.12507,0.17607,-0.078984,-0.15549,-0.002467,-0.13002,-0.053464,0.15058,-0.18103,-0.15551,0.2271,-0.13,-0.20652,-0.027987,0.074051,-0.027962,0.023035,-0.02798,0.17607,0.048573,-0.027969,0.048536,0.2781,-0.20653,-0.078996,-0.027962,-0.002454,-0.05347,-0.027993,-0.002467,-0.15548,-0.027969,-0.002485,-0.1045,0.43117,-0.13002,-0.078972,-0.027987,-0.181,0.30361,0.099559,-0.053464,0.023029,0.17609,-0.078977,-0.23204,-0.002485,0.27811,-0.05347,-0.079002,-0.20652,0.099588,0.099564,-0.07899,-0.12999,-0.15553,0.20158,-0.002448,0.074051,0.12507,0.099564,-0.13002,-0.20653,0.5332,-0.027974,0.023023,-0.02798,-0.35956,-0.18104,-0.28305,0.27815,0.15057,0.023023,-0.23201,1.2474,-0.35956,-0.56364,0.27812,0.2271,-0.079026,-0.15552,-0.20649,0.22719,0.81366,-0.33407,-0.35957,-0.1555,-0.23201,-0.33403,0.22711,0.27812,0.63517,0.022968,-0.23201,-0.74215,-0.92072,1.8086,1.1964,-1.1248,0.40563,-0.28312,-0.81866,1.3495,0.78826,-0.43609,-0.43607,-1.2013,-0.81874,2.2677,-0.9973,-1.5584,0.63524,1.936,2.2421,-2.2981,-0.10451,0.20158,-0.84427,0.78829,0.45677,0.58414,2.9308,-1.7368,-2.451,0.38007,-0.35973,-1.3547,-1.0737,-2.3744,3.1096,3.9,-0.33425,2.7523,-0.20648,-2.4257,-0.028018,-1.2269,-0.53812,-0.64014,-0.48704,0.25266,1.4515,-0.84405,0.78819,0.048561,-0.41058,-0.79315,0.22717,0.30358,-0.38519,-0.53814,0.83916,0.76272,1.579,-0.027993,-1.5329,-1.2269,-0.10457,-0.28299,-0.76761,-0.12998,-0.51263,1.6811,2.9311,-0.6403,-1.1759,-1.5839,-0.027822,-0.15565,0.73715,0.30366,-0.002485,0.15054,-0.053451,-0.35952,-0.41054,0.35455,0.35472,-0.51263,-0.81872,0.68616,1.2219,0.96679,-0.078966,-0.35964,-1.5839,-1.0227,1.3495,0.76285,-1.2778,-0.51274,0.099521,-0.86975,-0.97168,0.94114,-0.027913,-0.10445,0.12507,0.43126,1.1454,0.53319,-1.0738,0.73721,-0.92081,-0.38507,-1.635,2.2677,0.86474,-1.2777,-0.38505,-0.23204,-1.0483,-0.61468,-0.74221,-0.56363,0.94138,2.2677,1.8085,-1.5073,-1.0483,-0.51267,-0.10451,-0.74211,0.0485,0.68619,-0.05347,0.27808,-0.002405,0.71177,0.099521,0.048531,-0.48708,0.8393,-0.94622,-0.12999,0.22702,-1.1248,1.1454,-0.1809,-0.74222,-0.43612,1.2219,-0.028042,2.5992,-0.94621,-0.86977,-0.48711,-1.6092,0.63524,1.0433,-0.079033,-0.30858,0.45663,0.66074,-0.078947,-0.23201,1.0178,-0.5126,-0.41055,-0.43612,-0.053506,0.099552,0.023041,-0.078966,-0.027962,-0.33401,-0.35954,0.099534,-0.25754,2.8033,0.60968,-1.788,-0.283,-1.0227,-0.56362,0.074069,-0.25755,-0.48713,-0.15556,-0.079039,0.48218,0.12502,0.99232,-0.053476,-0.48699,1.1199,-0.92076,-0.51259,-0.053531,0.38008,-0.33406,-0.28308,-0.41058,0.023072,0.68626,-0.51258,-0.13004,0.35446,-0.86967,-0.23195,1.477,-0.33404,-0.69121,0.4056,0.12511,-0.079033,-0.41053,-0.33409,-0.53809,-0.35949,-0.20652,1.0176,0.176,-0.4871,-0.18098,0.4312,0.81384,1.1199,0.81383,-0.28309,-1.0993,-0.94623,-0.79314,-0.28312,-0.48711,0.048555,0.91579,0.15059,-0.4106,-0.35959,-1.1503,1.3239,1.2984,1.2729,-1.0738,-1.0483,0.32904,0.58413,-1.2776,-0.5382,0.53313,-0.66563,-0.58907,-0.43602,0.71171,2.2677,0.20149,-0.79325,-0.51263,-0.4871,-0.10448,0.022998,-0.46157,0.35464,-0.18103,0.91587,0.22715,-0.69119,1.477,-0.74218,-0.46159,0.15059,-0.28308,-0.13003,-0.028018,-0.28303,-0.71657,0.83918,-0.053519,1.2474,0.30368,-0.30858,-0.5127,-0.58914,1.3751,-0.25752,-1.6093,-1.2523,0.073917,-0.43615,0.43113,0.78824,1.4259,-0.41055,-0.66566,0.074026,-0.33401,-0.76752,0.99215,0.58407,-0.23198,-0.51257,-0.43599,-0.38511,0.35457,1.0178,0.3036,0.22714,-1.1501,-0.56359,-0.28311,0.22704,0.5076,1.1453,-0.20654,-0.58914,0.99229,-0.20642,-0.84412,-0.94625,2.6503,-0.02795,-0.33405,-0.92074,-0.56361,0.43109,-0.28306,-0.64011,1.477,-0.28305,0.91581,0.6607,0.25264,-0.6657,-1.3798,-0.18102,0.58418,-0.002467,1.1964,0.32918,-1.2777,-0.41073,-1.3289,1.5025,-0.69119,-0.10458,-0.48716,-0.385,-0.58894,0.25261,0.40563,0.099577,0.40559,1.5281,-0.002418,0.20142,-0.002565,-0.64015,-0.15548,0.023065,-0.10442,-0.25753,0.96685,-0.89518,-0.053537,-0.74218,0.38013,0.32907,1.0434,-0.48703,-0.25755,-0.12997,1.783,-0.25758,-0.4871,-0.97175,-0.10442,-0.43602,0.3546,0.38014,-0.12997,0.25254,-0.20652,-0.4106,0.50768,1.0177,0.25257,0.43127,-0.43604,-0.74217,-0.56366,0.40553,0.25262,-2.3746,1.5027,-0.41063,1.8084,-0.43609,0.50776,-0.64011,-0.53812,-0.28306,0.60973,-0.30863,-0.35966,-0.51257,0.099577,0.7117,-0.51259,-0.8442,1.9871,2.3443,0.2781,-0.99724,-0.81873,0.25261,-0.28309,0.12505,-1.5583,-0.18095,0.86468,-0.53807,-0.46156,-0.002528,0.023005,0.3546,0.22712,0.60968,-0.002423,-0.2065,0.048555,0.2782,-0.15549,-0.41062,-0.3851,0.22711,0.048482,-0.10435,1.0175,1.2473,-0.38491,-1.0227,0.63532,-1.1248,-1.0482,-0.23208,-0.33407,-0.61456,1.1453,0.53314,0.27806,-0.078996,0.20156,0.32913,-0.38508,-0.18101,-0.13005,2.1146,-0.078879,-1.3032,-0.84421,1.7065,-0.20655,-1.2779,-0.79323,-0.23205,-0.89517,0.023072,0.68618,0.22707,0.20177,0.66055,1.4514,-0.43608,-1.0226,-0.33402,-0.30854,0.48219,0.27806,0.20155,-0.38507,-0.12999,-0.15551,-0.61458,-0.3086,0.86478,0.2271,-0.12996,-0.02806,0.66057,0.60971,-0.20647,-0.51251,-1.0993,0.91576,-0.35955,0.43121,-0.71668,-0.46159,-0.12997,0.45663,0.71166,-0.97172,0.22721,0.07402,0.58418,-0.69107,0.76253,0.5586,-0.43605,-0.76751,2.982,-0.30858,-0.84426,-0.76767,-0.74218,-0.30858,-1.2014,-0.48714,2.8034,0.4057,-0.28304,0.17604,-0.46161,-0.30862,-0.69118,-0.94622,0.99235,-0.053384,0.27806,0.43111,0.30363,0.023035,-0.61458,0.71176,1.0687,-0.48711,1.7321,-0.43605,-1.1503,-1.0737,-0.027871,-0.25757,-0.28319,0.32912,0.15054,-0.58905,0.12501,-0.38499,0.40574,0.48214,0.25256,0.89028,-0.28306,-0.46159,-0.48713,-0.38506,0.9668,-0.48711,-0.56361,-0.3086,0.71176,-0.35953,-0.33402,-0.61464,-0.002503,-0.02792,2.3187,-1.0993,-0.38512,-0.58917,-0.20653,-0.15544,0.17602,-0.58913,0.66067,-0.12998,-0.283,1.0178,-0.48705,0.25251,-0.15548,-0.002381,0.73715,0.73722,-0.94614,-0.76767,0.40564,-0.053495,-0.84419,-0.89524,-0.18101,0.074044,1.8085,0.074013,0.48214,-0.4871,-0.4871,-0.5126,-0.28304,-0.71663,0.35465,-0.181,0.94131,1.987,-0.46154,-0.69107,-0.74223,-1.1503,0.023072,0.25265,1.5279,-0.30865,-0.2575,-0.28306,-0.7422,-1.0483,-1.1247,2.1912,0.074093,-0.48708,-0.28311,0.68618,0.022986,-0.64011,-0.41055,0.2526,0.12508,0.099546,0.1506,0.17607,0.15054,0.099528,-0.48699,-0.18109,-0.10453,-0.18094,0.40564,0.048536,0.048518,-1.4309,2.2933,-0.027969,-0.53816,-1.2524,0.73728,-0.23205,-0.7167,0.53328,-0.053506,-0.23207,-0.15548,1.8086,-0.053519,-0.20655,-0.51262,-1.2778,0.3037,-0.00251,0.78819,0.022961,-0.30848,0.17608,-0.41059,-0.48708,0.22716,-0.1044,-0.078984,-0.23213,1.2218,-0.51261,-0.23212,0.38018,0.48217,-0.053537,-0.28303,-0.28301,-0.35959,0.30363,0.99239,-0.027944,-0.33408,-0.30855,-0.002454,0.048598,-0.3086,-0.56358,-0.053482,0.48212,0.12509,0.94133,0.099588,-0.35964,0.2781,-0.79316,-0.25754,-0.1045,-0.38505,-0.30855,0.023065,-0.33402,0.63514,-0.053476,0.89032,-0.56359,-0.25751,0.43103,0.22705,-0.02792,-0.48706,0.91584,0.12508,-0.56362,-0.33405,-0.53816,-0.69118,0.023017,1.0434,1.0944,-0.48711,-0.46164,-0.20654,-0.58905,-0.0535,-0.15555,-0.027956,0.15058,0.17609,0.099583,0.32912,0.09957,-0.18098,0.27809,0.96681,-0.079014,0.048536,-1.0992,-0.81866,-0.12994,0.278,-0.30858,0.53319,-1.0483,0.073977,1.579,0.3291,-0.078928,0.27818,-0.81869,-0.28304,-0.51265,-0.28307,-0.053513,-0.13,0.1251,-0.027987,0.27812,0.3802,0.89024,-0.18101,-0.18109,-0.027974,0.55875,-0.61461,-1.0738,-0.5381,0.9923,-0.35957,-0.66564,-0.64019,-0.10451,0.074062,-0.99727,1.9871,0.71174,-0.97169,-0.25756,0.38006,0.1505,-0.002448,-0.33406,-0.30854,-0.053482,0.2016,0.048549,-0.33407,0.71177,0.99235,-0.41052,-0.028018,-0.028018,0.12504,-0.18103,-0.33404,-0.20652,-0.38505,0.17611,0.20156,-0.053409,0.15052,0.89021,-0.23202,-1.3033,-0.43606,-0.46159,-0.41054,0.76277,0.20164,0.074026,0.20156,-0.002485,-0.18103,-0.2065,0.074038,0.30364,0.048536,-0.18101,1.1964,-0.028029,-1.2778,0.83928,-0.23204,0.048561,1.0179,-0.20652,-1.4054,-0.9718,-0.92076,-0.41057,0.023084,0.76277,1.2729,-0.18103,-0.181,-0.66556,0.6861,0.48214,0.048561,-0.53809,-0.6656,2.0637,0.6607,-0.69117,-0.71666,-0.4871,-0.028054,-0.002516,-0.23205,-0.35959,0.27813,1.1709,-0.58914,0.50771,-0.58913,-0.18103,0.32912,0.38017,-0.181,-0.92074,0.89029,0.66071,0.83926,-0.64015,-0.8952,-0.7422,-0.6657,-0.12998,0.81382,0.099577,-0.48716,0.15059,0.048555,0.40568,0.074062,0.45664,-0.3086,-0.66565,-0.43608,-0.74213,1.171,0.76264,-0.13004,-0.69116,-0.20649,1.8851,0.55874,-0.71662,-0.58916,-0.28311,-0.38508,-0.053482,-0.20653,0.12509,0.12508,0.2526,-0.027987,-0.05347,0.023047,0.2781,0.074051,-0.23204,0.91579,0.17606,-1.3544,0.96684,-0.48713,1.4259,-0.51258,-0.97171,-1.1503,0.2271,1.5025,0.81376,0.15062,-0.89526,-0.8187,0.09957,0.048525,0.50762,0.27811,-0.078959,-0.02798,-0.002418,-0.33405,0.45662,1.5025,0.53317,-0.84409,-0.1556,-0.18106,-0.3851,-0.35953,-0.41058,-0.51265,0.023041,0.17609,0.96681,0.48214,-0.23204,-0.76771,-0.61457,-0.15551,-0.43613,0.6097,-0.28301,0.12507,0.15055,-0.027962,-0.02798,0.48219,0.25253,0.45665,0.074155,-0.5636,-0.51264,-0.58913,0.35461,0.68621,-0.69113,0.32913,0.12505,-0.30856,-0.41058,-0.41057,-0.35957,-0.053482,-0.10449,1.3239,1.1199,-0.30858,-0.97175,0.023084,0.22706,0.048536,-0.4361,-0.078972,0.099528,0.074008,-0.48705,-0.10444,0.50766,-0.028018,-0.35962,1.8851,-0.35954,-0.56363,-0.38503,-0.23201,-0.6911,0.20156,0.63518,-0.13003,0.22711,0.20159,-0.43608,-0.4361,1.1964,-1.1758,0.66077,-0.20653,-0.33406,-0.12999,-0.35959,-0.23203,-0.23203,0.38012,-0.15553,0.83928,0.5077,-0.027993,0.25262,-0.30854,-0.053488,-0.15549,-0.078996,-0.027969,-0.33408,-0.2575,-0.002497,0.35461,0.43118,0.22712,0.4056,-0.078977,-0.5381,-0.51268,-0.53814,-0.51246,0.20151,0.099515,-0.002461,1.2984,-0.027956,-0.51263,-0.33407,0.048567,0.074062,-0.38508,-0.33408,-0.002485,0.5077,0.35462,0.07402,-0.28307,-0.12998,-0.25748,-0.181,0.17605,0.30363,0.86478,-0.48714,-0.33404,-0.46162,0.35463,-0.43609,-0.15551,0.023035,-0.84415,0.96682,-0.13002,0.023017,0.50766,0.45666,-0.4871,-0.79315,-0.48711,0.45664,0.53318,0.15054,0.66075,-0.76764,-0.46159,-0.41059,0.023054,0.6352,-0.079008,-0.1045,0.023114,-0.23199,-0.12999,1.0177,0.35455,-0.30858,-0.43603,-0.48706,-0.002436,-0.18101,-0.30855,-0.027969,0.99231,0.35465,-0.35959,0.22708,-0.13002,-0.69115,0.22709,0.023059,0.53317,-0.64012,0.35462,-0.23204,0.96684,0.048543,-0.69116,0.048555,0.30363,-0.79319,0.048555,0.023047,-0.053421,-0.002485,-0.61468,0.12509,0.68623,0.25261,-0.23202,0.45672,-0.30858,-0.53814,-0.28305,-0.10453,0.20161,0.12508,-0.71667,1.0944,-0.05347,-0.64009,-0.30858,-0.18106,-0.18093,0.40559,0.32908,-0.053519,-0.053451,1.0434,0.53318,0.048555,-0.74217,-0.56365,-0.30858,-0.43606,-0.13001,0.20153,0.17609,-0.18097,-0.18095,0.3291,0.22711,0.12505,-0.35962,0.55868,1.7831,-1.0228,-0.89523,0.63525,-0.02798,-0.33406,-0.56363,-0.35959,-0.25753,-0.71668,0.15057,0.32913,1.0178,1.0944,-0.61465,-0.51262,-0.33408,-0.5381,0.66072,-0.12997,-0.48717,-0.12998,0.45664,0.074062,-0.43601,0.20155,0.022992,-0.02795,-0.027944,0.023084,-0.30847,0.40552,-0.05347,-0.02795,-0.10447,-0.25756,0.38012,0.20163,-0.10447,0.2016,-0.56365,-0.02798,0.20157,-0.38509,-0.53813,-0.46162,0.38016,0.30364,0.68626,-0.10454,-0.6657,0.15057,2.5483,-0.84422,-0.8442,-0.74218,-0.5126,-0.20654,-0.027987,0.048555,0.5332,0.048555,-0.053482,0.099534,0.20158,-0.02795,0.25257,0.3801,-0.66553,0.074069,0.3036,0.2015,-0.30861,0.099588,-0.51252,-0.56362,0.27817,0.15056,-0.3851,0.25262,-0.027974,0.9158,0.17609,-0.76766,0.2271,0.89029,-0.66567,-0.43609,-0.38506,-0.15552,-0.053488,0.099564,0.074062,0.15059,0.17607,-0.1045,0.38017,-0.078996,-0.1045,-0.15549,0.45667,-0.25756,-0.46161,0.76271,-0.28305,0.074093,-0.18101,-0.10449,-0.53815,0.40566,0.25263,0.15057,-0.13001,-1.4309,1.3494,-0.4106,-0.02798,-0.053464,-0.18103,-0.181,0.099521,-0.053488,0.099588,0.023047,0.12507,-0.028005,-0.4106,2.0892,-0.41061,0.60972,-0.61465,-0.48713,-0.30853,-0.84414,0.40565,0.43114,-0.28306,-0.10453,-0.053464,0.20158,0.17606,0.30358,-0.20649,-0.74203,0.32905,0.22706,-0.28305,0.30366,-0.23205,0.40564,1.1964,-0.53809,-0.05347,-0.41059,-0.66567,0.02301,0.20156,-0.13007,-0.23204,-0.33404,0.50774,-0.10449,-0.6147,1.1454,0.1506,0.89032,-0.20653,-0.46159,-0.30858,0.048561,-0.5636,0.27811,-0.13002,-0.027974,0.50771,-0.053519,-0.15552,-0.20652,-0.002485,0.58423,0.45668,0.63524,-0.99726,0.50769,-0.15551,-0.33408,-0.002552,-0.38505,-0.38504,-0.38499,0.25257,0.2526,0.35459,0.2526,-0.02798,-0.35954,0.074111,-0.027969,0.43116,0.2016,-0.20655,-0.41057,-0.30854,0.048549,0.048512,-0.41061,-0.46161,0.81376,0.40565,0.43118,-0.20651,-0.89523,-0.69117,-0.28302,0.074038,-0.13001,0.35462,0.40566,-0.027974,0.048549,0.32912,-0.18106,1.7576,-0.79317,-0.8442,-0.30858,-0.30857,-0.15551,0.35463,0.099528,0.074044,0.048598,0.023059,0.12504,-0.10445,0.12507,0.099546,0.023035,0.048561,-0.027969,-0.15551,-0.002461,-0.41059,-0.64015,-0.66566,0.66074,1.6812,1.2218,0.5587,-1.3544,-0.56372,-0.76771,-0.69111,-0.33406,-0.35954,-0.002454,0.2271,0.40563,0.5842,0.48217,0.35463,0.074118,0.15056,0.099528,0.023035,-0.181,-0.0535,-0.12999,-0.07899,-0.079008,-0.15549,-0.20652,-0.15552,-0.12999,-0.078996,-0.20655,-0.23202,-0.35959,0.73723,1.2984,0.3036,1.5281,0.074062,-1.2524,-1.3033,-0.92079,-0.48714,-0.23201,0.15059,0.43116,0.6607,0.4057,0.20162,0.074044,0.2271,0.023065,0.074038,0.20154,0.074051,-0.41055,-0.027993,-0.07899,-0.64017,0.048536,-0.23199,0.30363,0.38013,-0.15551,0.12509,0.53319,-0.71668,-0.89521,0.20159,-0.13004,-0.35956,-0.053519,-0.02798,0.20163,0.35462,0.38013,0.15058,0.12508,0.023035,-0.25746,0.074026,-0.20655,-0.10449,-0.078977,0.15057,0.99233,-0.30854,-0.5636,0.099466,0.60971,-0.51261,-0.46157,-0.30856,-0.23208,-0.43609,-0.053421,0.50767,1.1709,2.0381,-0.89523,-0.81869,-0.64017,-0.6402,0.25267,0.15055,0.27809,0.1506,0.40567,0.58421,-0.10448,-0.35956,-0.30857,0.048543,-0.10451,1.1964,0.27814,-0.43602,-0.81873,0.12506,-0.20653,-0.38509,-0.46161,-0.58916,-0.053495,1.375,-0.30849,0.2016,0.2271,-0.1045,-0.3341,0.15057,0.15064,-0.10449,-0.028047,-0.053495,-0.20653,0.35464,0.32911,-0.053488,0.25262,-0.69114,-0.25751,0.022986,0.45669,0.27811,-0.027956,-0.33401,-0.28308,-0.28308,0.63523,0.30361,-0.20655,-0.35956,-0.18102,0.48219,-0.13001,0.023041,0.17617,0.58418,-0.5892,0.20155,-0.15549,-0.69112,-0.18098,-0.46159,-0.28305,0.60973,-0.13002,0.22707,-0.30853,-0.13003,0.30361,0.25262,0.20159,-0.23203,0.074069,0.17606,-0.38506,-0.35946,0.27808,0.17603,-0.30857,-0.28304,-0.028018,0.15056,0.17609,0.22712,-0.15549,0.32917,-0.1045,-0.41057,-0.46162,0.38012,1.0944,0.55869,-1.0993,-0.61476,1.1453,0.40571,-0.15547,-0.05347,-0.92073,0.099588,0.12509,-0.23205,0.023023,0.048531,-0.15551,0.2271,0.38014,-0.12998,-0.3085,0.35454,0.17607,0.023078,0.20161,-0.053458,-0.23204,-0.23207,-0.46156,0.38014,0.023096,-0.20656,-0.078996,0.81379,0.60966,-0.002479,-0.74218,-0.053495,-0.15549,0.63527,-0.41061,-0.71668,-0.64013,0.43115,-0.20652,0.32917,0.12507,0.17606,-0.027987,0.27813,-0.13,-0.002491,0.3291,-0.027925,0.45663,-0.13001,-0.30854,-0.7166,-0.15562,1.0433,0.43118,-0.43607,0.63523,-0.4361,-0.5381,-0.38508,-0.33409,0.96684,-0.46158,-0.33406,0.58417,0.66068,0.12507,-0.13,0.2271,-0.053451,-0.48708,-0.33405,-0.20653,0.12504,0.099546,0.22708,0.12507,-0.078996,0.12505,0.12507,-0.053464,-0.002436,-0.35957,0.22709,0.78825,-0.51264,0.27811,0.074111,-0.7167,0.074033,-0.43611,-0.43612,-0.20653,-0.43608,0.30364,0.78825,1.3494,0.1761,-0.41057,-0.15551,0.12509,-0.4871,-0.43609,-0.027993,-0.13001,-0.05347,0.17607,0.2781,0.048567,0.17607,0.099552,-0.002448,-0.027962,-0.23206,-0.15551,0.22713,0.2526,-0.15553,-0.53808,-0.1555,-0.079002,0.5587,-0.25755,-0.079021,0.73727,0.074087,-0.71658,0.6096,-0.053549,-0.4871,-0.5891,-0.15553,0.40566,0.32915,0.20158,0.15055,0.12508,-0.28305,-0.35955,-0.053458,-0.1555,-0.027993,-0.25754,-0.18105,1.1964,-0.078984,-0.58914,1.6045,-0.66565,-1.0483,-0.38506,-0.25751,-0.53813,0.63521,0.73726,-0.20653,-0.30857,0.048531,-0.18101,-0.078959,0.15058,0.66071,-0.1045,-0.13001,-0.33406,0.50769,0.40566,-0.079021,-0.38503,0.32908,-0.20652,-0.02798,-0.10452,-0.13002,-0.078996,-0.002454,0.048555,0.048573,-0.33405,0.12507,0.099515,-0.028029,-0.23196,0.048531,-0.12998,1.2474,0.32914,-0.74218,-0.10451,0.17607,-0.4361,-0.30853,-0.41059,0.32915,0.27812,0.40562,-0.027962,-0.20653,-0.07899,-0.2065,0.76275,-0.28298,0.25256,0.15052,-0.10452,-0.002472,-0.30851,0.074062,0.50771,0.27817,-0.053525,-0.13002,-0.48711,-0.079014,0.35467,-0.69119,0.20156,0.78828,-0.18099,0.22711,-0.30858,-0.30854,-0.18104,-0.002491,-0.12997,0.2016,-0.28307,-0.15553,0.38011,1.1454,0.4567,-0.30856,-0.99726,0.71177,-0.30857,-0.69119,-0.53811,0.45668,0.20162,0.38016,-0.18104,-0.38508,-0.30857,-0.79317,0.30358,1.2729,-0.18101,0.91582,-0.38507,0.023023,-0.48713,-0.51258,-0.48709,-0.3851,1.3749,-0.33407,0.32914,0.17611,-0.13002,-0.10447,-0.1045,-0.25758,-0.25755
