-0.15549,-0.07899,0.023035,0.63523,-0.1555,-0.18101,-0.28305,-0.23202,-0.181,-0.002467,0.20159,-0.078977,0.074044,0.15059,0.12507,0.15056,-0.05347,-0.13,-0.12999,-0.25752,0.048536,0.048555,0.074057,-0.002461,0.12508,-0.002485,-0.002472,-0.027987,-0.13001,-0.15549,0.6097,-0.027969,-0.15551,0.15057,0.27812,-0.23205,-0.20653,0.30364,-0.079008,-0.46159,-0.053495,0.22711,0.81379,-0.18101,-0.15553,0.43118,-0.28305,-0.079008,-0.1045,-0.23202,-0.10451,0.15058,-0.027956,0.048536,-0.002467,0.17609,-0.002461,-0.053488,-0.002461,-0.18101,-0.13,0.099546,-0.053482,0.43117,-0.18104,0.25261,-0.027962,-0.07899,0.023023,-0.4361,-0.078977,0.12508,0.099546,-0.027956,0.048555,-0.002472,0.074062,-0.078977,-0.13001,0.09954,-0.027969,-0.05347,-0.07899,0.12505,0.048555,0.099559,0.12505,0.17607,-0.1045,-0.053488,-0.1045,0.023047,-0.10449,-0.13,-0.13002,-0.053476,-0.027956,-0.002461,-0.002479,-0.002467,0.074069,0.023047,0.048536,0.074051,0.12509,0.22712,-0.18102,-0.3851,-0.23204,0.27812,0.35465,0.2016,-0.079002,-0.10449,-0.10449,-0.15551,-0.15551,-0.053476,-0.002472,-0.002485,-0.053476,-0.07899,0.38015,0.20159,-0.078966,-0.053482,0.048531,0.023041,-0.12999,-0.18101,-0.002485,-0.027969,0.12509,-0.027974,0.15056,0.22711,-0.002443,-0.15551,0.099564,-0.25756,-0.46161,0.15058,0.023035,-0.07899,0.023059,0.17609,0.27809,-0.002467,-0.20652,0.074062,-0.13002,0.20161,-0.07899,0.023029,-0.002467,0.048567,-0.002467,-0.10451,-0.027993,-0.079002,-0.002448,0.099564,0.048536,0.2271,0.074062,-0.1555,-0.15551,-0.25754,0.38016,0.15057,-0.28306,-0.13,-0.078972,-0.1045,-0.027974,-0.053458,0.099546,-0.002467,-0.18101,-0.027993,0.17608,0.2016,-0.078996,-0.002467,-0.2065,-0.18101,-0.1045,-0.002472,0.17607,-0.1555,-0.0535,0.023047,0.023059,-0.002485,0.55872,-0.002472,-0.002467,-0.18101,-0.002479,-0.12999,-0.002472,-0.027956,0.074044,-0.10448,-0.002472,-0.053476,-0.078972,0.099559,0.12507,-0.1555,-0.1045,-0.053495,-0.078972,-0.027969,-0.13001,0.023065,0.22708,0.15057,-0.18101,0.2271,-0.23204,-0.18104,-0.053482,-0.053476,0.12505,-0.027969,-0.027962,0.58419,-0.4106,-0.18101,-0.10449,0.20158,-0.002454,0.22712,-0.079008,-0.23204,-0.10449,-0.079008,-0.002467,0.023041,0.32914,0.12505,-0.002467,-0.1045,0.15057,0.099564,-0.18103,0.023017,0.25262,-0.078984,-0.1045,-0.10451,-0.10449,-0.002443,-0.002448,0.12507,0.12505,-0.002467,-0.05347,-0.078996,-0.002472,-0.002461,-0.002448,0.15057,0.074038,-0.002461,-0.078972,-0.1045,0.09957,-0.23202,-0.002467,0.048536,-0.13,-0.181,0.12507,0.12507,0.15057,-0.002472,-0.027974,-0.18101,-0.002467,0.15057,0.25262,-0.10449,-0.10452,-0.10449,-0.18101,-0.18101,0.53318,-0.23202,-0.35957,0.45668,-0.23202,-0.10451,-0.027956,0.023029,0.023035,0.048561,0.048531,0.048543,-0.1555,-0.078984,0.048567,-0.12999,0.074057,0.1506,0.099564,-0.079008,-0.053488,-0.053476,-0.10452,-0.25754,0.023065,0.15058,0.43115,-0.053464,-0.027974,-0.053488,-0.078996,-0.05347,-0.13,-0.002479,0.074051,0.074062,0.099546,0.074051,-0.078977,-0.002485,0.20159,-0.15549,-0.1045,0.099552,-0.078977,-0.20653,0.099559,0.099583,0.53319,-0.002479,-0.28305,-0.28307,-0.1555,-0.1045,-0.10451,0.023047,0.074069,0.73725,0.15057,0.023054,-0.20653,-0.30857,-0.13001,0.15057,-0.002472,-0.002461,0.25262,-0.053476,-0.13,-0.027987,-0.027974,-0.1045,-0.18103,-0.027993,0.12508,0.048567,0.048555,0.12506,0.048543,-0.027969,-0.1045,0.023029,0.023023,-0.053476,-0.20653,0.15056,0.17609,0.023059,-0.078984,-0.053476,-0.078972,-0.13002,-0.0535,-0.078977,0.20161,0.12507,0.15057,-0.053476,-0.078972,-0.1045,-0.18103,-0.078984,0.048555,0.30362,0.023029,-0.18101,-0.002454,0.048531,0.048549,-0.10449,-0.027993,0.074062,0.53321,-0.28305,-0.25754,-0.053476,-0.027974,0.074087,-0.13002,-0.002461,-0.053482,0.023041,-0.20652,-0.20654,0.48219,0.22711,-0.02798,-0.28303,-0.10452,-0.027969,-0.053482,-0.002479,-0.027956,-0.002467,0.048536,0.023047,-0.053476,0.43114,0.12507,-0.35959,0.35462,-0.28304,0.15059,0.074038,0.45667,-0.38508,-0.002472,-0.027969,-0.25754,-0.13002,0.2526,0.17608,-0.18101,-0.10448,-0.002461,0.099546,0.023047,0.099583,-0.002467,0.12505,0.048536,-0.23202,-0.002485,0.074057,0.048561,-0.13,-0.053476,-0.053464,-0.053488,-0.027993,-0.002467,-0.13001,-0.15551,-0.02798,0.12508,0.048561,-0.002467,0.15057,0.074062,-0.027962,-0.18102,0.15057,-0.15551,0.023035,0.2526,-0.25753,-0.23202,-0.15552,1.2474,0.35465,-0.41061,-0.51263,-0.23203,-0.13002,0.048543,0.048549,0.023041,0.12509,0.15057,0.074051,-0.027962,-0.10449,0.023035,-0.078972,0.023029,0.099564,0.023054,-0.079002,0.1251,-0.15551,-0.0535,-0.1045,-0.2065,-0.078984,0.023041,0.12509,-0.002467,0.17607,0.48218,0.023041,-0.30854,-0.23205,-0.23203,0.023041,-0.002479,0.1506,0.12507,-0.13,-0.23202,-0.07899,0.68623,0.27814,-0.18103,-0.38507,-0.25754,-0.10451,0.48219,-0.053482,-0.002479,0.023035,-0.23203,0.2781,-0.18103,-0.33405,0.048555,0.099546,0.12507,0.023041,0.048543,0.2526,-0.078984,-0.18101,-0.1045,0.023023,0.074057,-0.002448,0.074062,0.074051,-0.10449,-0.15552,0.074038,-0.002467,-0.12999,-0.002467,-0.053476,0.09957,0.074057,-0.002485,0.074057,0.12509,-0.1045,-0.13002,-0.078996,-0.002472,-0.13001,0.048561,-0.25753,0.66072,0.22712,0.048531,-0.053488,-0.35957,-0.15551,-0.078996,0.023035,0.22711,0.1761,-0.079008,-0.10449,0.15058,-0.20653,0.12507,-0.053482,-0.25753,0.023035,-0.053464,0.15057,0.023059,0.12505,-0.15549,-0.079008,-0.078996,0.15057,0.2016,-0.10449,-0.078996,0.074057,-0.12998,-0.027993,-0.078996,-0.053476,0.12506,-0.027969,-0.053488,-0.027974,-0.25752,-0.20651,1.0433,0.22711,-0.38508,-0.28306,-0.23202,0.074057,0.20158,-0.002467,-0.43607,-0.079008,-0.027974,0.60974,-0.38511,-0.027969,0.35465,0.32911,0.30361,-0.92073,1.1964,-0.56362,-0.20652,-0.25756,0.58419,-0.89523,-0.43608,0.074062,0.40565,-0.4871,0.83927,0.2526,0.099595,-1.2268,-0.10446,0.81368,0.22716,-0.079021,-0.43624,-0.97181,0.9923,0.71186,-1.1246,-0.334,-0.69116,0.20148,1.3494,0.40568,-0.41053,0.40565,-0.079026,-0.58916,-0.41061,-0.027974,1.0178,0.099564,0.83927,-0.76767,-0.51263,-0.18102,0.86478,1.7065,-0.30855,-0.8187,-1.7115,-0.56362,1.0434,1.8596,-0.002472,-0.84412,-0.89518,0.55852,0.40554,-0.38503,-0.56358,0.022986,-1.3798,0.63528,0.45671,0.63525,0.76273,0.22711,0.07413,0.048561,0.58402,0.022943,-0.33411,-0.38504,-0.74209,0.40571,-0.23203,-0.35958,-0.30855,-0.25756,0.12505,-0.027969,-0.33405,-0.027974,0.30358,0.22708,0.86485,0.66074,-0.56362,0.099552,-0.79321,-0.12996,1.0944,2.2167,-0.84422,-1.6605,-0.89525,-0.079014,-0.58914,-1.2779,0.17609,0.32915,0.50767,-0.027974,1.9361,-0.079002,-0.078984,-0.35954,0.022998,0.55867,-0.38504,-0.38508,-0.48705,-0.002491,0.2526,-0.10449,-0.20652,0.074013,0.099552,-0.027944,-0.20649,-0.028005,-0.25755,-0.15548,-0.38507,0.89029,2.0381,-0.35956,0.15056,-0.84422,-0.69114,-0.94622,0.45662,0.43114,-0.1045,-0.053464,0.023047,0.17609,0.023029,-0.23201,0.48211,0.53315,-0.15551,-0.027913,0.20164,-0.56359,-0.69118,-0.23203,0.25262,0.17609,-0.25757,0.58422,0.2526,0.22709,-0.69117,-0.64015,0.63524,0.15056,0.5077,-0.30856,0.2271,-0.13002,-0.10451,-0.23202,0.15057,-0.69119,-0.30855,1.7831,-0.20653,-0.3596,-0.18101,-0.15551,-0.027987,0.12504,0.099564,0.12507,0.04858,0.12507,0.099577,0.12505,0.023041,0.023035,-0.18103,-0.053488,-0.13,0.023041,0.2271,-0.25754,-0.33404,0.91582,-0.25753,-0.53815,-0.15553,0.43115,-0.35956,-0.5126,0.63526,1.9361,-0.76769,-1.1248,-0.7167,-0.35956,-0.35957,-0.4106,-0.12999,0.17609,0.45667,0.25264,0.45666,0.48215,0.17609,-0.05347,-0.2575,-0.07899,0.099534,-0.25756,-0.4106,0.8903,-0.25753,-0.30858,-0.053506,-0.30856,-0.002448,0.48218,0.17609,-0.35954,-0.30854,0.074033,0.53317,0.023041,-0.027993,-0.20652,-0.053451,-0.15555,0.32914,0.30361,-0.078996,0.17611,-0.33404,0.83928,0.27814,-0.7677,-0.86975,0.023054,0.048543,-0.20649,0.66072,-0.10452,0.22713,-0.43612,0.17607,-0.20653,0.68623,0.048555,-0.30855,-0.053476,0.32915,0.50767,-0.15552,-0.1555,-0.02798,-0.078996,-0.13001,-0.027987,-0.079008,0.12508,0.20162,0.074075,0.22707,-0.181,-0.13002,-0.2065,-0.20653,-0.51262,-0.69117,0.89031,1.5025,-0.48712,0.023035,-0.84423,-0.33407,-0.10447,0.38013,-0.53814,-0.56362,-0.23203,1.4515,0.58422,0.27811,0.35464,-0.74218,-0.66566,-0.51261,0.099559,-0.23205,0.048561,0.2526,-0.20653,-0.20652,1.3495,-0.1045,-0.33405,-0.48713,0.27814,0.43116,-0.51262,-0.10449,1.1199,0.32911,-0.76769,-0.7167,-0.48712,-0.181,0.60971,0.15057,-0.23203,-0.15551,-0.002436,0.55869,-0.053495,-0.18103,-0.30859,0.22712,0.27814,-0.15553,0.023035,0.04858,0.20159,0.048543,0.023035,-0.15551,-0.15552,-0.13001,-0.33408,-0.12999,0.66075,0.94133,-0.35956,-0.89522,0.22709,-0.23207,0.32911,-0.18101,-0.35955,0.40567,0.40564,-0.33407,-0.35956,0.048567,0.35462,0.58422,-0.027969,-0.41058,-0.002472,-0.15552,-0.078996,0.023047,0.023035,-0.33401,0.17605,-0.002467,-0.053476,-0.027993,-0.027974,0.66072,0.66074,-0.51263,-0.15552,0.023065,-0.078996,-0.25757,-0.61463,-0.51261,1.5025,0.8648,-0.46161,-0.4106,0.20161,-0.35956,-0.30855,0.22707,0.09954,0.023023,-0.51258,-0.12998,1.0433,0.68624,0.25262,-0.48711,-0.58914,-0.53811,-0.41059,0.12507,0.12507,-0.078984,0.15057,0.12509,0.17609,-0.053476,0.17607,0.074038,-0.30851,0.17609,-0.30855,-0.69116,0.27809,0.58422,-0.05347,0.02301,0.73722,-0.30858,-0.76773,-0.30856,-0.33406,-0.1555,-0.10447,-0.078984,0.04858,0.023054,0.78828,0.40566,0.12507,-0.18103,0.45665,-0.43608,-0.30855,-0.18103,0.12507,0.15055,-0.078996,0.12507,-0.13001,0.023035,-0.002467,-0.10452,0.58422,-0.66566,-0.05347,-0.2065,1.8596,-0.002485,-0.99727,-0.84423,-0.23201,0.048549,0.023035,-0.30854,0.02301,0.15057,-0.15551,0.50769,0.32913,-0.027987,0.048573,0.4822,0.074057,-0.23203,-0.23206,-0.28306,-0.18101,0.22712,-0.027993,-0.10447,-0.18102,-0.15551,0.074057,0.12507,0.45666,0.50769,-0.38506,0.43114,-0.3341,0.27812,-0.58916,-0.15554,0.4567,-0.41057,-0.10452,-0.58912,0.32915,0.20159,0.074062,-0.4616,-0.33407,0.48221,0.20159,0.30362,-0.13001,-0.20652,-0.181,-0.20652,0.048525,0.6352,0.35464,0.023035,0.17608,-0.58913,0.2271,-0.28306,-0.28305,-0.12999,-0.33404,-0.30854,0.17607,0.48218,0.023041,0.43116,0.35464,-0.33405,-0.30856,-0.18101,-0.002454,0.17609,0.35467,0.48214,-0.002472,-0.43607,-0.46159,0.074033,-0.20655,-0.4361,0.12507,1.3239,-0.027969,-0.25751,-0.1555,-0.053506,-0.28308,0.60973,-0.20649,-0.41059,0.35461,0.023041,0.048561,-0.48711,0.20158,0.12508,-0.027962,0.45667,-0.002472,0.12505,-0.18103,0.12507,-0.027993,0.48221,-0.05347,-0.48712,-0.078984,0.048531,0.023023,-0.66567,0.20161,0.99235,0.20158,-0.69116,-0.43612,-0.56363,-0.078953,0.83928,0.66072,-0.15549,-0.25755,-0.56366,-0.12998,0.35467,0.27811,0.22712,-0.15552,-0.20655,0.83928,0.2526,-0.48711,-0.3851,-0.23202,-0.20651,-0.028005,-0.25753,0.12508,1.0688,0.20159,-0.5126,-0.64015,1.2984,0.023065,-0.66566,-0.74219,-0.25755,0.53318,-0.23202,0.09957,0.099552,-0.078977,0.074044,0.099559,-0.38506,-0.23202,0.38014,-0.002454,0.074057,0.60973,-0.20653,-0.28305,-0.33404,-0.10452,-0.002472,-0.027974,0.074038,-0.10449,0.55872,-0.43607,0.02301,0.48217,0.048536,-0.053488,-0.15551,0.15059,-0.38507,-0.43609,0.15057,-0.15553,-0.027993,0.76278,-0.41059,-0.28305,0.50771,1.1964,-0.4616,-0.4361,-0.28308,-0.35956,0.27815,0.048549,-0.15555,0.25261,0.074051,-0.12999,-0.23201,0.023041,0.074051,0.17611,0.40568,-0.28305,-0.33409,-0.23205,-0.078972,0.35465,-0.15551,-0.13004,0.25261,0.22713,-0.10451,-0.027993,-0.10452,-0.51262,-0.58913,-0.12999,-0.002467,0.048549,0.023059,0.074062,-0.002479,0.89028,0.2271,-0.027969,-0.078996,-0.078984,-0.18098,-0.33405,0.099521,0.15057,0.12507,0.2271,-0.20655,-0.02798,-0.33406,-0.43608,-0.078984,0.6097,0.38014,-0.38507,-0.28306,0.074057,-0.10446,-0.027987,-0.33408,-0.56362,-0.23205,1.1454,1.0944,0.68622,-0.48712,-0.66567,-0.35959,0.22713,-0.18104,-0.20653,-0.23202,-0.25754,-0.078966,0.2526,0.099564,0.60972,-0.33407,-0.30856,0.048567,0.17608,0.58422,0.17609,-0.30857,-0.38505,0.023047,-0.35959,-0.51263,-0.07899,0.25259,0.12506,0.40568,0.023023,1.2729,-0.46158,0.099583,-0.43609,-0.30856,-0.30856,0.099552,0.45666,-0.078984,-0.1045,0.074044,0.048561,-0.002485,-0.33405,0.099564,-0.15551,0.048555,-0.027987,0.48219,0.38017,-0.13002,-0.18101,-0.48711,-0.15552,-0.58915,0.074069,-0.13002,0.45667,-0.18099,-0.33408,0.074033,1.2474,0.43117,-0.64015,-0.61465,-0.48712,-0.078972,0.023023,0.17607,-0.078972,0.50769,0.45668,-0.053495,-0.43608,-0.002479,-0.053488,-0.33404,-0.41059,0.15054,-0.079008,0.30363,0.02309,-0.027962,-0.13005,-0.079008,-0.10449,-0.07899,-0.078984,-0.002461,0.099583,-0.027956,-0.053476,-0.027993,-0.1045,-0.07899,-0.002479,1.0688,-0.35957,-0.30854,0.27813,-0.13,-0.7677,-0.10452,0.32913,0.89029,-0.64015,-0.33405,-0.43607,-0.20653,-0.002485,0.50769,-0.053458,-0.1045,0.048531,-0.002461,-0.25753,-0.18101,0.63525,0.35462,-0.13001,0.09957,-0.28306,0.023023,-0.25753,-0.66565,0.68623,0.15058,-0.18101,-0.23203,-0.078977,0.023029,-0.078984,0.099577,0.074051,-0.10449,0.048549,-0.053495,-0.23204,0.12506,1.681,0.15058,-0.66565,0.60971,0.38013,-0.89519,-0.69118,-0.46164,-0.28307,0.15059,0.27813,0.09954,0.25261,0.099619,0.25259,-0.028005,-0.1045,-0.078977,-0.20652,0.50769,0.048543,0.023059,-0.002461,0.76273,-0.48712,-0.81869,-0.20652,0.32912,-0.13001,0.12509,-0.181,0.048531,-0.18101,0.71174,-0.20654,-0.2065,-0.3851,0.30359,0.20159,1.4005,0.60971,-0.66566,-0.79318,-0.86971,0.3291,-0.079002,-0.002467,0.074033,0.27812,0.32915,-0.02798,-0.10449,-0.28301,-0.002503,0.074038,0.73728,-0.64017,-0.56363,0.68622,-0.05347,0.58423,-0.4361,-0.13002,-0.027969,-0.38509,-0.25756,0.40567,0.27812,-0.64015,-0.38507,0.048536,0.96684,-0.05347,0.048512,-0.38509,0.40567,0.35465,-0.58914,-0.43608,-0.13,0.099546,0.50768,-0.15549,0.048525,-0.10449,-0.13,0.25263,-0.18103,-0.078996,0.12507,0.25259,0.023065,0.074051,-0.10451,-0.10447,-0.07899,-0.053495,-0.027974,-0.1045,0.023065,-0.053488,0.074057,0.074044,-0.13001,-0.05347,-0.027974,0.074057,-0.28305,0.17608,0.20161,0.66073,-0.15553,-0.20653,-0.43612,-0.35957,0.09957,1.1709,-0.92073,-0.078977,0.50769,-0.33405,-0.13002,-0.1555,-0.23205,-0.18105,-0.1555,-0.002479,-0.18103,0.5587,0.30364,0.099583,-0.13001,-0.002467,0.048561,0.15059,0.099595,-0.18103,-0.35959,-0.46161,-0.1045,0.2016,0.074051,0.074057,0.38016,-0.20653,-0.35956,-0.28306,0.45669,-0.15553,-0.1045,0.15062,-0.10449,0.81376,-0.28306,-0.25754,-0.20651,-0.23204,0.48216,-0.078977,0.023029,0.099564,0.81377,-0.079002,-0.66567,-0.25751,0.71174,-0.41059,-0.13001,0.32913,0.12508,-0.4616,-0.25757,-0.002461,0.68623,0.94131,-0.41057,-0.028005,-0.58913,-0.76767,-0.23207,-0.181,0.78828,0.17609,0.023059,0.22707,-0.027956,-0.25756,0.30363,0.66077,-0.38508,0.023041,0.023029,0.27812,-0.002467,-0.23207,-0.46161,-0.5126,-0.10452,-0.18098,0.48219,0.2271,0.023065,-0.079008,0.099546,-0.33407,-0.10452,0.73726,0.45669,-0.15553,-0.35957,-0.35956,-0.23202,0.12507,0.60973,0.32914,-0.23205,-0.46159,-0.30856,-0.053488,0.12508,0.17608,0.22709,-0.38508,-0.23202,0.50769,-0.46161,-0.10449,0.58422,0.27811,0.22712,-0.5126,-0.46162,-0.18105,0.22711,-0.25753,-0.13001,-0.18101,-0.30857,0.32911,1.7066,0.35465,-0.41059,0.55872,-0.7677,-0.86974,0.099564,-0.25754,-0.15552,-0.078972,0.2016,0.15057,0.048567,0.074044,-0.079008,0.15059,0.45667,-0.35956,-0.078941,-0.23204,0.099546,-0.18103,-0.48711,0.60971,0.76275,-0.28306,-0.43609,0.15057,-0.25756,-0.28302,-0.1045,0.20158,0.27812,0.17609,-0.43607,-0.53812,0.30363,-0.002454,0.50767,1.4515,-0.41056,-0.53812,-0.20654,-0.38508,-0.46161,-0.079008,0.15059,0.023023,-0.10449,-0.078972,0.048561,0.30365,0.40564,-0.078984,0.023047,0.074069,-0.20652,-0.53814,-0.46159,0.76276,0.023065,-0.13002,-0.078972,-0.30858,-0.8187,0.73726,1.1964,0.73728,-0.69119,-0.71669,-0.38508,-0.25753,-0.25751,0.048518,-0.002479,-0.027956,0.12506,0.32913,0.17609,0.25262,0.09957,-0.002467,0.17609,0.40568,-0.33406,-0.56364,-0.15553,0.35465,-0.30855,-0.33407,-0.078984,0.074051,-0.02795,0.12505,-0.10448,-0.053495,-0.027974,-0.15552,-0.15551,1.2984,-0.25754,-0.28303,0.55868,0.048555,0.81379,-0.84423,-0.69116,-0.46161,-0.053458,0.2526,-0.02798,-0.07899,0.2526,0.38017,-0.027993,0.048543,-0.078972,-0.053488,-0.02795,0.15058,0.22706,-0.002467,-0.20649,-0.25754,-0.053482,0.048506,0.12508,-0.20653,-0.20653,0.17608,0.17607,0.25262,-0.15551,-0.20653,-0.38508,-0.97176,0.048561,1.8341,1.1199,-0.48711,-0.74221,-0.58914,-0.15551,-0.28306,-0.002454,-0.002485,-0.35957,0.023041,0.53318,0.63524,0.048531,-0.10451,-0.13,0.048531,-0.25753,-0.10452,-0.12999,-0.15552,-0.053482,0.023047,0.2271,0.12507,0.20158,0.12508,-0.002461,-0.15552,-0.20651,0.023023,-0.053482,0.023047,0.048555,0.023047,-0.053464,0.48219,-0.38509,-0.12999,0.20159,0.048555,-0.002448,-0.15553,-0.078984,-0.05347,-0.10451,-0.027974,-0.002472,-0.027993,-0.05347,-0.002461,-0.027969,-0.053464,-0.10452,0.58422,0.35465,0.66074,-0.027993,-0.53812,-0.053476,-0.46162,-0.15551,-0.053476,-0.07899,-0.20653,0.48219,0.17609,0.32912,0.94131,-0.25755,-0.33407,-0.56362,-0.28305,0.12507,-0.10449,-0.027974,-0.053458,0.35466,0.2526,0.48217,-0.28307,-0.51262,-0.23201,-0.13002,0.048543,-0.1555,0.048549,-0.027993,-0.23202,-0.33406,0.81378,0.099564,-0.10451,-0.1045,-0.10449,-0.33409,0.2526,-0.10449,0.89029,-0.18103,-0.053482,-0.41061,-0.33404,0.023023,-0.30855,0.2016,-0.053482,0.5332,-0.30858,-0.18103,-0.20652,0.43117,0.60971,0.12505,-0.25754,0.17609,-0.4106,-0.38509,0.45669,-0.35956,-0.41057,-0.1555,-0.18102,0.048555,0.73726,0.048531,-0.10449,0.35464,-0.35959,-0.25753,-0.027969,-0.079002,-0.2065,-0.078996,0.25262,0.17608,0.17607,-0.027956,0.60971,-0.38509,-0.38511,-0.41056,0.023029,0.40567,0.074038,0.023054,-0.15553,-0.43607,-0.28308,0.30365,-0.1045,0.12507,-0.48711,-0.23204,1.3239,0.38015,-0.69115,-0.56365,0.048555,-0.30854,-0.25756,-0.05347,-0.002467,0.17607,0.17611,0.15058,0.25259,-0.002461,-0.027974,-0.027974,-0.13001,0.15057,0.27814,-0.15554,-0.053488,0.22713,-0.18101,-0.30856,-0.18101,-0.25753,-0.078996,-0.053458,0.074051,0.074038,0.35465,0.048543,0.074038,0.048555,0.32914,0.074062,-0.18101,-0.1045,-0.25753,-0.053495,-0.027969,0.048567,-0.053482,-0.002491,-0.10448,-0.13001,0.32912,0.048555,-0.41058,0.048543,-0.41059,0.48216,0.63524,0.2271,-0.33409,-0.30856,-0.53812,-0.41059,-0.10452,0.2016,0.27813,-0.002467,0.12505,0.074062,0.15059,-0.18098,-0.23203,0.023041,0.074062,0.17606,0.35465,0.38016,-0.079008,-0.38508,-0.25756,-0.1045,-0.078977,-0.56363,-0.05347,1.1454,0.3036,-0.30854,-0.30855,-0.74218,0.58422,-0.7422,0.76275,2.0382,-0.33406,-0.97174,-0.89522,-0.33409,0.023047,0.17608,0.099546,-0.10449,-0.10449,-0.15549,0.38014,0.63524,0.81377,-0.15552,-0.25751,-0.053495,-0.30858,-0.69116,-0.23205,-0.23202,1.1454,-0.25754,-0.38509,-0.15551,0.27814,0.83927,-0.25753,-0.58914,-0.4361,-0.43612,0.58424,-0.23203,0.5332,0.023035,-0.23204,0.12506,0.074057,0.25261,-0.33406,-0.027956,-0.027969,0.048555,0.048536,0.048567,-0.002467,-0.07899,-0.20652,-0.30857,0.15059,-0.002472,0.6352,0.15059,-0.30857,-0.38508,0.60971,1.2474,-0.23203,-0.4361,-0.4361,-0.38508,-0.35956,-0.053495,0.58421,0.38016,0.074069,0.32912,-0.35957,1.0434,-0.1045,-0.25754,-0.23203,-0.20652,-0.20652,0.048561,-0.002472,-0.053464,0.48219,0.58421,-0.51262,-0.58914,0.5332,-0.35959,-0.25752,-0.13,0.023035,0.27814,-0.027993,-0.23202,0.5587,0.15058,-0.1045,-0.002472,-0.027962,-0.13,-0.13002,-0.1555,0.048536,0.15059,0.2271,-0.20651,-0.23204,-0.64015,0.91586,0.6352,-0.64014,0.12507,-0.30856,-0.23202,0.023023,-0.002467,-0.15549,0.20158,0.38016,0.048555,-0.10449,0.22713,0.76277,-0.46161,-0.58913,-0.027974,-0.25754,-0.232,-0.25757,0.12507,0.45667,-0.078977,-0.1555,-0.053495,0.048549,-0.13,0.074051,-0.027969,0.048543,0.25261,0.38013,0.023054,-0.35958,0.023023,-0.41057,-0.13002,-0.10448,-0.002485,0.048555,1.375,-0.7167,-0.13,0.32913,-0.53814,-0.41058,1.0178,-0.74218,-0.74217,-0.28305,0.22711,0.15059,-0.053506,0.074057,0.68627,-0.18104,0.023054,0.22708,0.17608,-0.13001,-0.12999,-0.027969,-0.10452,-0.181,-0.15551,-0.053476,0.15059,0.20158,0.023047,-0.053482,-0.07899,-0.027956,0.20158,0.12508,-0.1045,0.023029,-0.232,-0.1045,-0.027969,-0.35956,-0.18104,0.91582,0.074069,-0.41061,-0.53812,1.63,-0.002461,-0.66567,-0.58914,-0.66565,-0.027969,0.22712,-0.079008,0.048555,-0.15553,-0.20651,0.35464,0.48217,0.45667,0.048567,-0.079002,-0.027956,-0.027993,-0.15551,-0.23203,-0.25754,-0.1045,-0.053476,0.099564,-0.20652,0.15058,0.099559,-0.1045,0.43115,-0.30854,-0.41059,-0.23204,0.73723,-0.10447,-0.30858,0.023047,-0.25753,-0.23205,-0.10449,-0.002479,-0.28304,0.45665,0.27814,0.048536,-0.027944,-0.078996,0.20159,0.023017,-0.1555,-0.13001,-0.13001,0.15059,0.023035,0.15058,-0.027969,-0.56365,-0.10448,-0.15553,0.15058,0.48218,-0.48713,1.6045,-0.10451,-0.86971,-0.66567,-0.10451,-0.1045,-0.30856,-0.25756,0.63524,-0.053476,-0.13001,0.27813,0.074038,-0.07899,1.0944,0.099564,-0.1045,-0.25753,-0.15553,-0.1045,-0.28305,-0.027998,-0.002443,0.09957,0.074062,-0.078996,-0.13001,-0.20652,-0.10452,-0.33405,0.15059,0.20159,0.63522,0.048561,-0.078972,-0.23205,-0.13,-0.64017,0.32915,0.32913,-0.23203,-0.28305,-0.28306,-0.12999,-0.41061,-0.18099,0.45669,1.0944,-0.002479,-0.35958,-0.20653,-0.18101,-0.05347,0.099552,0.12507,-0.027962,-0.1045,0.074038,-0.078972,0.099552,-0.12999,0.048531,-0.15549,-0.28307,0.1761,1.8596,0.023047,-0.79321,-1.0993,-0.51263,0.5332,0.17609,-0.4106,-0.5126,0.074038,0.17611,0.73727,-0.23204,-0.23204,0.023041,0.099577,-0.13,-0.20655,0.5332,0.27812,0.023017,-0.25753,0.048536,-0.15553,-0.2065,0.78828,-0.35959,-0.46159,-0.30856,-0.18104,-0.078996,-0.35956,0.60973,-0.079002,-0.1045,0.09954,0.048567,-0.1045,-0.10451,-0.078959,0.45667,2.2422,-0.13003,-0.66566,-0.94626,-0.002448,-0.41056,-0.23205,-0.053488,0.074057,-0.078996,-0.027969,0.5587,0.09957,0.023059,-0.25756,0.55871,-0.20651,-0.30857,-0.15551,-0.1045,0.48218,0.048561,-0.35957,-0.3596,-0.18102,-0.053464,-0.079008,-0.078977,0.35465,0.27812,-0.23205,0.43117,0.99234,-0.53814,-0.74221,-0.64015,-0.53809,0.20158,0.2271,-0.12998,0.50768,0.12506,-0.20653,-0.23203,0.074057,-0.027993,-0.35957,0.55871,0.48218,0.81378,-0.4871,-0.64015,-0.35958,-0.38507,-0.20655,0.074069,-0.002461,0.3036,0.25261,0.22712,-0.46159,-0.30856,0.30361,0.50769,0.023023,0.12509,-0.28306,0.27813,-0.51262,-0.078996,-0.15551,-0.33405,-0.15552,0.43114,-0.002454,-0.18103,0.22712,-0.027993,-0.28304,1.2984,0.76277,0.048567,-0.51265
-0.12999,-0.13002,-0.027956,-0.002472,0.12509,0.22708,-0.027956,0.023035,-0.027974,-0.002472,-0.002467,-0.1045,-0.002467,0.1506,0.22709,-0.07899,-0.02798,-0.053506,0.048567,-0.053482,-0.4616,-0.1555,0.074069,0.048549,-0.027987,0.074062,0.074069,0.3291,-0.002467,-0.2065,-0.1045,-0.079002,-0.10447,-0.027969,0.099546,0.15058,-0.002454,-0.027974,0.09954,-0.20651,-0.1045,-0.02798,-0.002467,0.023035,0.1506,0.023041,-0.15551,-0.05347,-0.13,-0.10451,-0.20652,0.099546,0.32915,-0.18101,-0.053482,0.048549,0.023029,0.099577,0.074057,-0.18102,-0.30855,-0.20652,-0.12999,0.60973,-0.027974,0.20161,0.099559,-0.33405,-0.1045,0.20159,-0.18101,-0.10451,-0.027956,0.023029,-0.002448,0.048549,0.023047,-0.002454,0.12505,0.074069,-0.1045,-0.002461,-0.12999,-0.25756,0.12507,0.32914,-0.1045,-0.58914,0.38016,-0.002467,0.023023,-0.05347,-0.002472,-0.053464,0.099552,0.023054,0.099552,-0.027956,0.023017,-0.027969,-0.13002,-0.12999,-0.1045,0.15057,0.17609,0.5332,-0.23202,-0.078996,-0.078977,-0.30856,-0.18101,0.099564,0.074038,-0.053464,-0.18101,-0.002472,0.63524,0.048536,0.023041,-0.15553,-0.18105,-0.002443,-0.053488,0.048555,0.048561,-0.10449,-0.12999,-0.078972,0.68622,-0.25753,-0.25754,-0.25755,0.38016,-0.15549,0.023035,-0.002461,0.12507,-0.1045,-0.12999,-0.002491,-0.15551,-0.13001,-0.13,0.20159,0.099552,0.45669,-0.02798,-0.002472,-0.053488,-0.18103,-0.12999,-0.1045,-0.10449,0.023059,0.2016,0.074038,0.30363,-0.15551,-0.25756,-0.25754,-0.002461,-0.18103,0.099564,0.12509,-0.002467,0.099559,0.074062,-0.053464,-0.15551,-0.23203,-0.12999,0.40565,-0.1045,-0.027962,-0.027974,0.048543,0.099583,-0.078972,-0.002485,-0.02798,-0.10447,-0.002461,-0.027993,-0.181,-0.027956,0.023047,0.074044,0.09957,-0.078977,-0.13001,-0.079014,0.023047,-0.05347,-0.078984,0.22708,0.20159,-0.053464,-0.18101,-0.15553,-0.078984,-0.002467,0.12507,0.17609,0.099588,-0.18102,-0.20653,0.15058,-0.10448,-0.28306,-0.20653,-0.13,0.30365,0.30363,-0.078996,-0.027969,-0.10447,0.45668,0.074038,-0.13001,-0.078977,-0.10449,-0.23204,-0.20652,0.12507,0.023059,0.074057,0.074051,0.12507,-0.12999,-0.15551,-0.079008,-0.13,-0.10447,0.074062,0.099552,0.074069,-0.002467,-0.027993,0.048525,-0.002454,-0.33407,-0.078996,0.4822,0.22708,-0.12999,-0.027974,-0.079014,-0.10447,-0.15553,0.048555,0.048567,0.023035,-0.13,0.1506,0.048555,0.023041,0.048561,0.17609,-0.079008,-0.20653,-0.027993,-0.2065,-0.07899,0.074062,0.12509,0.20158,0.12508,-0.18102,-0.15554,-0.25753,-0.13,-0.027993,0.12507,0.048543,0.12507,0.099588,0.023047,-0.07899,-0.027962,-0.027969,-0.07899,-0.078966,0.023041,0.048531,0.074062,-0.002461,-0.1045,-0.05347,-0.053488,-0.13002,-0.027969,-0.053464,-0.18101,-0.02798,0.27814,0.25263,-0.30856,0.074038,-0.05347,0.15058,0.25259,-0.13,-0.15551,-0.1045,-0.002461,-0.002454,-0.053476,0.048549,-0.10449,-0.13,0.023023,-0.002467,-0.12999,-0.027974,0.2526,0.30364,-0.25753,0.40565,-0.05347,-0.33409,-0.20653,-0.33404,0.023041,0.074057,-0.078972,-0.002467,0.074044,0.074069,0.023035,-0.13,0.023059,-0.027987,0.023054,0.12506,0.074062,-0.23204,0.15058,-0.002454,0.15055,-0.18101,-0.30858,0.074057,0.5332,0.17609,-0.13,-0.1045,-0.20652,-0.13001,-0.02798,-0.15551,-0.053506,0.55872,-0.13,-0.10449,-0.078966,0.074044,0.17609,0.074062,0.074038,-0.07899,-0.20653,-0.027974,0.023041,0.099552,0.023059,0.20158,-0.10448,-0.0535,0.099583,0.099552,-0.078984,-0.13,-0.1045,-0.13001,0.074062,0.048561,0.20158,-0.078972,0.023023,-0.25753,-0.078996,0.048555,0.63523,-0.078996,-0.18101,-0.15551,-0.053476,-0.10449,-0.002479,-0.027969,-0.13001,0.099564,0.023054,-0.053495,-0.002448,0.45667,0.048531,-0.18101,-0.078996,0.048549,-0.078977,-0.079008,-0.20651,-0.002467,-0.15552,0.074051,0.83931,0.023023,-0.23202,-0.18103,-0.10452,-0.12999,-0.13001,0.074057,0.048561,0.023047,0.17607,0.15059,0.048536,-0.30856,0.023054,0.15056,-0.002467,-0.002461,0.074044,0.099577,-0.10451,-0.002467,-0.053476,-0.13002,-0.027974,-0.027974,0.099552,-0.053464,0.048536,0.12508,-0.10449,0.048549,-0.053482,-0.027993,0.15059,-0.053495,-0.1555,-0.002485,0.023041,-0.05347,-0.35957,0.30364,0.76275,0.22711,-0.23205,-0.41059,-0.38507,0.27812,-0.002467,-0.15551,-0.10449,0.09954,0.074062,-0.1045,-0.002479,0.099559,0.023059,0.023047,0.12505,0.22711,-0.1555,0.023023,0.023047,-0.053476,-0.18102,-0.13001,-0.12999,0.023054,0.074057,0.048543,0.074062,-0.002448,0.048531,-0.02798,-0.12999,-0.10449,-0.027974,0.099552,0.20161,0.099583,-0.078984,-0.027993,-0.10449,-0.23204,-0.13002,0.15058,-0.053458,-0.002461,0.048536,-0.10448,-0.10449,0.35462,0.27811,0.074069,-0.51262,0.17609,-0.079002,-0.027969,-0.20651,-0.053476,-0.053476,0.43118,0.023035,-0.15553,-0.20653,-0.1045,-0.18103,0.09957,0.048567,0.09957,0.09957,-0.078984,-0.15553,0.32913,-0.078972,-0.13002,-0.053495,-0.10448,-0.10449,0.048561,-0.053458,-0.053482,-0.002485,0.048543,-0.181,-0.02798,0.023029,0.09957,0.048573,0.048555,0.099552,0.074051,-0.10449,-0.079002,0.17607,-0.2065,-0.053488,0.074062,-0.002467,0.40566,-0.10447,-0.0535,-0.13,-0.18104,-0.07899,-0.002467,0.048531,0.048561,0.20158,-0.002454,-0.002479,-0.002467,0.023035,-0.10452,0.27814,-0.15553,-0.15552,0.2016,-0.002461,0.074081,0.023029,-0.181,-0.15551,-0.13001,-0.078996,-0.15551,0.048549,0.30361,-0.053458,0.12506,-0.002448,0.023029,0.023041,-0.18103,0.58422,-0.23203,-0.079002,-0.002454,-0.078977,0.023041,-0.053476,0.023023,-0.12999,-0.027974,-0.027993,-0.027974,-0.027956,-0.002485,0.023047,0.30364,-0.078984,0.023041,-0.20652,-0.33407,-0.0535,-0.053488,0.048561,0.15059,0.50769,-0.078972,-0.41059,-0.13002,0.66073,-0.23202,-0.20652,-0.20653,-0.053482,-0.053476,-0.02798,0.023047,0.074069,0.074057,0.048536,0.12505,-0.12999,-0.053482,0.12507,0.023059,-0.15551,0.048525,-0.46159,-0.053446,-0.15553,0.35461,0.53319,-0.61464,-0.51262,0.12505,0.38014,0.89032,-0.51261,0.20159,-0.02798,-0.38508,-0.053495,-0.99727,-0.33405,-0.027974,0.76273,-0.97168,0.32912,-0.3596,2.4462,0.32908,-2.6809,-0.63995,5.5328,-0.71674,-1.8645,-2.0939,-1.1249,-0.61477,0.27789,-0.13012,-0.078898,-0.23189,0.22717,0.45669,0.30369,2.4973,-0.12997,-0.13004,0.25252,-0.30857,-0.74214,-0.46162,-0.28305,-0.33404,-0.18101,0.20155,0.53308,-0.20655,-0.35951,0.048604,1.222,-0.002418,-0.64015,-0.58914,-0.48711,0.074013,0.78824,-0.13001,-0.18102,-0.35954,0.12506,-0.12996,0.099588,0.20159,0.27806,-0.002454,-0.13001,-0.1045,0.1251,-0.81871,0.43118,0.94132,-0.078996,-0.10449,0.12507,0.81378,-0.35953,-0.35962,-0.38516,-0.86967,-0.078977,0.48219,0.023029,0.023029,0.35465,-0.25752,0.43116,-0.18105,-0.38509,-0.46159,0.53317,0.09957,-0.48711,-0.86974,1.7831,1.9106,-0.15551,-0.4361,-0.56363,-0.8697,-0.48713,-0.25754,0.074051,0.15059,-0.25753,0.048536,0.35465,0.22708,0.023047,-0.18098,0.17605,-0.20653,-0.10447,0.35465,0.32913,0.09954,-0.30854,-0.3851,-0.23202,-0.23202,-0.23203,-0.30853,0.099521,0.074062,-0.41047,0.074057,1.3237,0.55862,0.20161,-0.181,-0.64007,-0.71659,-0.5126,-0.58916,0.68623,-0.41058,2.2677,0.27811,-0.41061,-1.2779,-1.0993,0.5587,1.0178,-0.76772,0.25262,-0.002485,0.074081,0.15058,0.048561,0.048531,-0.078959,-0.002454,-0.002454,0.20156,0.81377,0.023059,-0.20652,-0.13001,-0.10452,-0.10449,-0.079021,-0.28302,-0.13,0.023029,0.22707,-0.002467,0.17609,0.048573,-0.13003,-0.053488,0.27813,-0.15553,0.12506,-0.078977,-0.23203,0.17607,-0.10451,0.20159,-0.1045,-0.53809,-0.15553,0.58415,0.15057,-0.38504,-0.71663,1.0944,-0.28303,0.074038,0.68624,1.8086,-0.4106,-0.86974,-0.94625,0.048543,-0.28306,-0.13,0.099552,0.17609,0.099552,-0.002467,0.099564,-0.002461,0.32916,-0.053482,0.27809,0.17607,0.074069,0.048531,-0.10448,-0.23203,-0.10449,-0.18103,-0.027962,-0.10448,0.12505,0.074062,-0.0535,-0.13,-0.23204,-0.027956,0.58422,0.099546,-0.2065,-0.23205,-0.1045,-0.10449,0.048536,-0.18101,-0.61467,-0.07899,0.20158,3.4156,-0.15553,-0.43609,-1.0993,-0.74217,-0.53812,0.27812,0.17606,-0.30855,-0.18102,0.048531,0.15059,0.20159,0.27811,0.27813,0.04858,0.12504,0.17608,-0.053476,-0.079021,-0.23203,-0.2575,-0.41053,0.25256,0.53316,-0.079021,-0.23202,-0.28302,-0.23202,0.17607,-0.20652,-0.02795,-0.1045,0.048536,0.12507,0.50767,0.17611,-0.30856,-0.4361,0.60969,0.2271,-0.18105,-0.20652,-0.41057,0.32915,-0.027974,-0.078977,-0.30855,-0.028005,0.074062,0.81378,-0.13002,-0.15552,-0.15549,-0.13002,0.099559,0.074057,0.15059,-0.23202,0.023029,-0.23199,0.15054,-0.10449,0.074033,0.074057,0.1761,-0.002454,-0.002485,-0.1045,-0.28305,-0.15551,0.099583,0.30362,-0.027962,0.12505,0.5332,-0.38509,-0.3596,-0.12998,-0.25754,-0.13002,0.048543,-0.027969,0.099564,0.53321,0.17609,-0.002479,-0.28304,-0.41058,0.73727,-0.053488,-0.3851,-0.41058,-0.078996,-0.027987,-0.20652,0.27811,-0.3851,1.0944,0.38015,-0.41056,-0.79319,0.023035,0.22711,0.94131,-0.053488,-0.12998,-0.51263,-0.46164,0.099564,-0.25754,-0.18103,-0.027974,0.32915,0.40565,0.17609,0.074062,-0.053495,-0.053464,-0.20652,-0.028005,0.048561,-0.002479,-0.027974,-0.05347,-0.23201,-0.1555,0.3291,-0.61467,0.99235,0.30362,0.048549,-0.078996,-0.46158,-0.25753,-0.10451,0.023029,0.22709,-0.12998,0.15056,0.12507,0.30363,0.048531,-0.027969,0.023035,-0.13,-0.5126,-0.10449,-0.002479,2.2932,0.86478,-0.97178,-0.79321,-0.86973,-0.46159,-0.15551,0.20159,-0.05347,0.35462,0.25262,-0.1045,0.17607,0.09957,-0.002461,-0.053482,-0.002467,-0.02798,0.63524,-0.20655,0.20159,-0.41057,-0.0535,0.20159,-0.4616,-0.10446,0.074062,-0.027974,-0.053488,-0.10451,-0.15553,-0.10449,0.074044,-0.078959,0.023047,0.17607,0.20161,-0.13,0.023059,0.32915,-0.002467,-0.23208,-0.18103,0.023072,-0.30855,-0.079008,0.12507,-0.078972,-0.002497,0.074033,0.048549,-0.20651,0.12508,0.023035,0.35468,-0.053446,-0.51261,0.53315,0.074038,0.60972,-0.13001,-0.7932,-0.69116,-0.48711,-0.053476,-0.10448,0.2271,-0.13002,0.15059,0.023059,0.48216,0.55868,-0.027987,-0.2065,-0.002479,0.35463,0.023059,-0.15548,-0.3086,-0.20655,-0.15549,-0.10451,-0.028005,0.023047,0.099564,0.023059,0.074062,-0.078972,-0.027993,-0.0535,0.048543,-0.027956,-0.1555,0.074062,0.15058,0.43114,-0.15552,-0.13001,-0.43607,-0.5126,0.32911,0.074051,0.43118,0.40566,0.27811,0.074087,-0.64017,-0.3596,-0.23204,-0.18101,-0.38508,-0.05347,0.30364,0.78825,0.27812,0.048549,-0.13002,-0.23202,-0.027956,-0.027993,-0.079008,-0.1555,0.074038,-0.002467,-0.027969,0.074062,0.15059,-0.12998,-0.002479,0.25252,-0.028018,-0.20648,-0.15548,-0.053464,-0.027962,0.2526,0.15059,-0.07899,-0.07899,-0.15552,-0.053488,-0.15551,-0.30858,0.6352,0.17609,0.099608,-0.35959,-0.028018,0.099564,-0.053451,-0.13002,-0.38508,0.20161,0.20158,1.1199,0.30363,-0.61465,-0.76768,-0.4106,0.40563,-0.53812,-0.20652,-0.33406,0.12508,1.1454,0.17607,0.023041,0.12509,-0.25754,-0.20656,-0.25753,-0.38505,-0.18102,0.023035,0.09957,0.17607,0.074044,0.12509,0.023047,0.12506,0.15059,-0.079014,-0.33404,-0.053495,-0.027993,-0.027956,0.17609,0.023035,-0.07899,-0.028005,-0.181,-0.35954,0.48215,-0.13,-0.1045,0.023023,0.35464,-0.002423,0.25258,-0.18104,-0.41057,-0.12999,-0.18101,-0.18101,-0.10449,0.12509,0.50769,0.3036,-0.25753,-0.38509,0.27809,0.50771,-0.002472,0.43115,-0.56358,-0.46159,0.073946,-0.13,-0.41053,-0.15552,0.15056,0.15059,0.023059,0.099559,0.15059,0.22712,-0.002461,-0.002503,0.074038,-0.002467,-0.23202,-0.15551,0.15057,0.099577,0.15059,-0.10452,-0.078984,-0.25753,0.048543,-0.25756,0.27811,0.58422,-0.35956,-0.41055,-0.23202,0.09954,-0.053482,0.15057,-0.079014,-0.53815,1.3494,0.17611,-0.12998,0.2271,1.2474,-0.43612,-0.64014,0.048536,-0.51262,-0.25757,-0.23203,-0.23202,-0.027993,0.22712,0.48219,0.099552,0.22712,0.12508,0.40563,-0.053476,0.27812,-0.35956,-0.48713,-0.20652,-0.027998,0.074026,-0.078953,-0.18097,0.22704,0.60968,-0.15551,-0.078972,-0.23201,-0.078984,-0.053458,0.15062,0.048549,-0.10452,0.32911,-0.18101,-0.20653,-0.30856,-0.43613,1.0434,-0.10447,-0.28303,0.023035,-0.1045,-0.18103,-0.23204,-0.20653,-0.027969,-0.1045,0.2526,0.35467,0.94131,0.023029,-0.46157,-0.33406,0.09954,-0.13002,-0.41059,0.2526,0.09957,0.76275,-0.25753,-0.18101,-0.53809,0.074026,-0.053482,-0.078972,-0.10449,0.023029,0.22708,-0.05347,-0.15548,0.1251,0.94125,-0.053476,-0.4871,-0.51257,-0.30852,-0.078996,0.48216,-0.078996,-0.05347,-0.38509,-0.053495,-0.053476,0.32912,0.35462,-0.053525,0.023059,-0.33401,-0.002485,-0.078996,-0.1045,-0.027987,0.55869,0.048561,-0.15549,-0.30854,-0.15552,-0.002479,0.17609,0.099546,-0.002491,0.023047,-0.12999,0.023047,0.9923,-0.46159,-0.10449,-0.30857,-0.30854,-0.12997,-0.23204,0.50765,0.048543,-0.13,-0.078996,-0.02798,0.12507,0.023059,0.12507,0.15058,0.023059,-0.002472,-0.25755,-0.07899,-0.053476,-0.25753,0.17606,0.2016,-0.56361,0.48216,0.20161,0.81378,-0.20652,-0.33405,0.30361,-0.53812,-0.7422,-0.46162,-0.18101,-0.027956,0.099559,0.2526,0.22712,0.2271,0.099546,0.048543,-0.027962,0.30361,0.09957,-0.23202,0.40563,1.0178,-0.5381,-0.58916,-0.4361,-0.33405,-0.30856,0.25263,0.023103,0.27806,0.22705,-0.027956,-0.002467,-0.18101,0.023065,0.074087,0.023023,0.12507,0.048536,-0.30854,0.12507,0.12508,-0.002479,-0.25756,-0.079008,-0.002472,-0.181,0.17609,-0.027987,-0.078984,-0.20649,0.2271,1.528,0.17608,-0.66566,-0.58912,-0.41058,-0.61465,0.43118,-0.10452,-0.10452,0.30361,0.074062,-0.33401,0.048525,-0.002472,0.074069,0.25259,0.048531,-0.07899,0.86481,-0.07899,-0.181,-0.13002,0.09954,-0.053464,-0.23204,-0.15553,-0.10449,0.099564,0.12506,-0.28299,-0.078984,0.12499,-0.23202,0.023059,0.35467,0.099588,-0.18103,-0.027969,-0.41059,-0.18103,1.426,-0.28305,-0.027969,-0.69118,-0.30855,-0.027956,0.074051,0.099583,0.12507,0.023029,-0.28303,0.2016,-0.33406,0.20156,0.22709,-0.25753,-0.002472,0.58423,0.40568,0.45666,0.023035,0.074057,-0.69118,-0.56364,-0.38508,-0.30856,0.25261,0.27811,0.099546,0.099577,-0.078953,0.099546,0.099528,0.048543,0.1506,-0.12996,0.35454,0.12504,0.048598,-0.41054,-0.43609,-0.15551,0.83925,-0.002467,-0.46156,-0.25756,-0.027993,-0.053482,-0.10453,-0.053482,0.22713,0.60969,-0.30856,-0.027962,-0.28305,-0.10447,0.35464,-0.053482,-0.33405,-0.10452,0.15059,0.2781,-0.18103,0.048555,-0.078984,-0.002479,0.074038,-0.18103,-0.15551,0.48217,-0.12998,0.023035,-0.25752,-0.18104,-0.20654,0.71175,1.0178,0.32917,-0.4871,-0.43611,-0.46161,-0.13002,-0.07899,-0.053458,-0.18101,-0.2065,0.68626,0.30357,0.048543,-0.078972,-0.28303,-0.33404,0.76278,0.048536,-0.15552,-0.027969,0.048555,-0.25756,-0.10451,-0.10448,0.099559,-0.25756,-0.10447,0.43115,-0.10449,-0.23202,-0.027931,0.38014,0.12502,-0.18101,0.023054,-0.18103,-0.33405,-0.13,-0.02798,-0.181,0.32915,0.48221,-0.3851,-0.35959,-0.35957,-0.3851,1.4004,0.32915,0.074038,0.023023,-0.41055,-0.61465,-0.3851,-0.002454,-0.15549,-0.027969,0.48209,0.2016,-0.00243,0.023103,0.17609,0.30361,-0.15549,0.15055,-0.30853,-0.33404,-0.10454,-0.10451,0.023054,-0.13002,0.15057,0.78829,0.22709,-0.56363,-0.38506,-0.38508,-0.30857,-0.43608,0.68623,-0.02798,-0.2065,0.074081,0.15057,0.22705,0.12505,-0.12999,0.048525,0.074062,-0.28302,-0.027974,0.099595,0.22712,0.023005,0.023047,-0.20649,-0.33407,-0.33405,-0.18104,0.27808,0.89031,-0.35954,-0.28306,0.023035,-0.23203,-0.2575,0.12502,-0.078996,0.2271,-0.078953,-0.078984,-0.053464,-0.12999,-0.027993,0.099564,0.074033,1.8596,0.73726,-0.64017,-0.76771,-0.58916,-0.48711,-0.30856,-0.18101,0.25259,0.12509,0.15057,0.023023,-0.10445,0.17605,0.3291,-0.20648,-0.05347,-0.027969,0.048543,-0.053482,-0.15553,0.22708,-0.002467,-0.23203,-0.18103,-0.18101,0.71175,-0.078972,-0.30857,-0.23203,-0.33405,-0.28306,0.023035,0.023072,0.48211,0.099559,0.09957,0.30364,-0.18098,0.89032,-0.23207,-0.94626,0.48219,0.68625,-0.30856,-0.41058,-0.28303,-0.15551,-0.20653,-0.027969,0.15057,0.048555,0.048561,0.15058,-0.078984,0.023041,0.32911,0.50768,-0.053476,0.25259,-0.25754,-0.25754,-0.15551,-0.33406,-0.25753,-0.07899,0.074062,-0.027944,0.12505,-0.002472,0.074062,-0.10451,-0.12999,0.074057,0.099552,0.15059,0.12505,-0.181,-0.053446,0.073995,-0.25754,-0.33405,-0.002454,0.55872,0.048536,-0.35958,-0.078966,0.27812,-0.30856,-0.4616,0.99234,0.023041,-0.41059,-0.56361,-0.53814,-0.53811,0.58422,0.099546,0.048549,0.38014,-0.25756,-0.35957,-0.13004,0.2781,0.048561,0.2526,0.048555,-0.15551,-0.02798,0.099632,0.12504,0.17603,-0.10449,-0.12999,-0.12998,-0.002461,0.25261,-0.15551,-0.15553,-0.002485,-0.13002,-0.027974,-0.10451,0.38016,0.048561,-0.027962,0.15058,0.15059,-0.053451,-0.13001,-0.20654,-0.30858,-0.15554,0.50772,0.023054,-0.053488,0.074057,-0.027974,0.048536,-0.25753,-0.18103,0.40565,-0.25753,-0.33409,0.12507,0.40566,0.45667,0.32913,0.66072,-0.94621,-0.86974,-0.15553,-0.13002,0.81375,-0.078972,0.023047,-0.027956,-0.38503,0.07402,0.048543,-0.13001,-0.10449,0.15058,0.048536,0.2781,0.22712,-0.053458,-0.20652,-0.05347,-0.079008,0.35454,-0.078972,-0.053476,-0.027944,-0.28302,0.1506,0.048549,-0.002497,0.023029,0.20159,0.43112,-0.48708,0.25262,-0.53809,-0.13004,0.023035,0.099564,0.17607,0.25259,0.12508,0.023047,-0.078947,-0.38508,-0.15556,0.78829,0.48221,0.32914,-0.48711,-0.69119,0.27811,0.73728,-0.23205,-0.5381,-0.46161,-0.15553,-0.13001,0.074075,-0.10449,0.20159,0.50768,-0.027969,0.048531,0.12507,0.32913,-0.027969,-0.12998,-0.078977,-0.10454,0.15057,0.50769,-0.33406,-0.20656,-0.053488,-0.18099,0.099552,-0.18102,0.27814,-0.053476,-0.13002,0.53321,-0.23204,-0.20652,-0.053458,-0.12998,0.17606,-0.28306,0.91579,0.2781,-0.20653,0.45667,-0.3851,0.53323,-0.61457,-0.15558,-0.2576,-0.46156,-0.002461,-0.002443,-0.002461,0.099534,0.074062,0.2016,0.40565,0.30361,0.12507,-0.12999,-0.078984,-0.027969,0.099552,-0.13003,-0.4616,-0.28303,-0.1045,0.48216,0.30366,-0.13001,-0.23203,-0.30856,-0.078972,-0.02792,0.35459,-0.13005,-0.23205,0.45667,0.17609,-0.1555,-0.33406,0.48217,0.86481,0.099552,-0.69116,-0.79319,-0.94623,0.40568,0.32909,0.32913,1.0688,-0.10449,-0.25755,-0.35957,-0.46157,-0.00254,-0.07899,-0.30852,0.30366,0.32917,0.074038,0.023054,0.048549,0.023035,-0.18101,-0.027987,-0.181,-0.20652,0.074051,0.17611,0.074051,0.71173,-0.33405,-0.46157,0.43116,-0.30855,-0.4361,0.71173,-0.15551,-0.12999,-0.13001,0.048561,0.023035,0.32911,0.099552,-0.053488,-0.15549,0.023065,0.17609,0.15056,0.099583,-0.41059,-0.23205,0.58422,-0.18102,-0.20655,0.09957,-0.078984,-0.12998,0.099503,0.099521,0.3547,-0.23202,0.83928,-0.23202,-0.46159,-0.20655,-0.5381,-0.18099,0.17607,0.58417,0.074051,0.2016,-0.078977,-0.002467,-0.25754,-0.078996,-0.05347,-0.053476,-0.10447,0.43116,-0.13,-0.25754,0.15056,0.27812,0.12506,-0.33406,-0.28302,-0.18101,0.12505,0.15059,0.023054,-0.002491,-0.078996,-0.33404,0.30363,-0.053476,-0.23203,0.3036,0.55871,-0.33407,0.023065,0.048549,-0.25757,-0.30857,-0.23202,-0.10447,-0.027969,0.30361,0.099546,0.099546,-0.027969,0.048549,0.20158,-0.41058,0.55873,0.12509,0.17603,1.6555,-0.58913,-0.53811,-0.61463,-0.66566,-0.4106,-0.20652,-0.28306,0.2271,0.50768,0.20158,-0.002443,0.35464,0.2271,0.32913,0.074051,-0.053458,-0.18103,-0.25753,-0.1045,0.048543,0.023023,0.074057,-0.078984,-0.053464,-0.25753,-0.15552,-0.10451,0.55869,0.53318,-0.18103,-0.46159,-0.079002,-0.3851,0.20159,0.35465,0.60973,-0.76769,1.63,-0.28305,-0.35958,-0.48711,-0.30854,-0.20652,-0.18101,0.15059,0.35454,-0.053488,-0.053451,-0.10445,0.023078,0.20158,0.27809,0.099577,-0.027974,0.15056,-0.027998,-0.079021,-0.25753,-0.23201,-0.10449,0.023054,0.48218,-0.027974,-0.33406,-0.002436,0.12507,0.02301,-0.1045,-0.15551,-0.28305,0.023047,0.22709,-0.181,0.96683,-0.4361,-0.7422,1.3495,-0.71666,0.32913,0.074044,-0.30856,-0.38506,0.048561,-0.15553,-0.20654,-0.25751,-0.4871,0.78823,0.20159,0.48218,0.60972,-0.078972,0.023041,-0.33407,-0.33407,-0.20655,-0.23203,-0.41051,0.15052,0.53314,-0.078959,-0.053458,-0.078972,0.27811,0.53318,-0.25753,-0.38508,0.09954,-0.15552,0.15056,0.17609,-0.002461,0.023041,-0.15553,0.023041,-0.002467,0.15055,-0.12998,0.048573,-0.15549,0.15055,-0.053482,-0.053488,0.68624,-0.30855,-0.027993,-0.078972,-0.4106,-0.18101,-0.10447,-0.18103,0.83928,-0.05347,1.63,0.12505,-0.53811,-0.7422,-0.58916,-0.43609,0.074062,-0.15552,0.68628,0.30362,0.78826,0.22708,-0.10451,-0.41053,-0.30852,0.17597,0.048518,-0.078966,-0.002467,-0.12996,0.099564,-0.027969,-0.1555,0.048536,-0.027998,-0.053482,0.17609,-0.078959,0.023029,0.023065,-0.10451,0.15052,-0.23205,-0.027969,0.15057,0.20162,-0.35954,0.099546,0.099559,0.099588,0.023035,-0.51264,-0.28304,0.58421,0.023041,-0.41056,-0.0535,0.27812,-0.027987,-0.10449,-0.13002,0.2016,0.38014,-0.18102,-0.28305,-0.23207,-0.078953,0.2016,1.1964,0.32915,0.38013,-0.58916,-0.61465,-0.53812,-0.13001,-0.15551,0.15057,0.30366,0.023078,0.17604,0.099559,0.09954,0.35461,-0.12999,-0.38506,0.1506,0.074062,0.48216,0.30363,-0.20652,-0.28305,-0.43609,-0.053506,-0.25753,0.81376,0.048543,-0.25754,-0.28305,-0.25753,-0.15552,0.023054,0.22707,0.81379,0.074062,-0.053482,0.30363,-0.38508,-0.43609,-0.20655,0.22711,-0.25754,-0.30856,0.30362,-0.33404,-0.20651,0.35461,0.15057,0.048561,0.074044,0.023035,0.099577,-0.15554,0.35465,0.1761,-0.283,0.048482,-0.10449,-0.002448,0.099564,-0.38508,-0.18101,-0.078984,0.66075,0.048567,-0.30857,-0.41061,-0.027969,0.25261,0.40563,0.38014,-0.41058,-0.28305,-0.38511,0.81379,-0.18101,-0.46159,-0.28305,-0.02798,0.71176,0.40566,-0.028005,-0.30856,-0.28302,-0.28305,-0.053488,-0.18099,0.074033,0.30361,0.12506,0.15054,0.023041,-0.23199,-0.10449,-0.053488,-0.15553,0.2271,0.048567,0.12505,0.15057,-0.23201,-0.53812,-0.002485,0.17606,0.32914,0.074057,-0.002472,-0.30854,-0.18102,-0.15549,-0.07899,0.074044,0.12508,-0.027974,-0.027993,-0.027974,0.048543,0.099552,0.048567,0.30363,-0.4361,0.58423,0.63524,-0.61467,-0.8952,-0.66565,-0.71666,-0.25756,1.2219,0.63523,0.71176,-0.10449,0.023029,-0.58913,-0.71668,-0.38508,-0.002485,-0.002461,0.40564,0.27813,0.099552,0.15059,0.048561,0.15056,-0.02798,-0.20652,-0.079008,-0.027925,-0.002485,0.09954,-0.10449,0.48218,-0.20654,-0.4361,-0.25756,-0.2065,0.099613,0.20156,0.023041,-0.38508,0.30361,0.15056,0.86479,0.43117,-0.56364,-0.28305,-0.25753,-0.027969,-0.078953,0.17607,-0.053488,-0.38509,-0.053488,-0.46159,1.9871,0.35464,-0.58914,-0.38509,-0.33404,-0.053519,-0.25753,0.023029,0.048555,-0.027962,-0.002461,0.25261,0.30358,-0.05347,-0.15549,-0.18101,0.17605,0.99235,-0.20655,-0.20653,-0.18101,-0.12998,-0.20652,-0.30858,0.048567,0.60969,-0.181,-0.20652,-0.15553,-0.1555,-0.23203,-0.20652,-0.027956,0.83927,1.2219,-0.4871,-0.71665,-0.53815,0.43114,0.50768,0.15056,-0.23203,-0.23205,-0.053476,0.27811,0.074051,0.09957,-0.027974,-0.053476,-0.28303,-0.38511,0.04858,0.8393,0.30358,-0.13,-0.5126,-0.15551,0.45666,-0.25753,-0.23204
-0.15549,-0.07899,0.023041,0.1761,0.2526,0.099588,-0.079002,0.074057,0.048549,-0.25754,-0.25754,-0.053482,0.048561,0.12506,0.023035,0.023035,0.048543,0.023035,-0.13001,0.12508,0.20159,-0.027993,-0.053482,0.17608,-0.002479,-0.053482,0.074057,-0.15553,-0.20653,-0.07899,-0.002485,0.023047,-0.027974,0.099546,0.27814,-0.078984,-0.02798,-0.1045,-0.15551,-0.12999,0.43115,0.099583,-0.23203,-0.18103,0.023065,-0.13002,0.074069,-0.002472,-0.18103,-0.15551,-0.002472,0.023054,0.099546,-0.002454,0.048555,0.15058,0.12507,-0.027974,0.023041,-0.053482,-0.078977,-0.1555,0.12508,0.074051,0.2016,-0.10451,-0.181,-0.13002,-0.1045,-0.15551,-0.079008,0.45669,-0.027987,0.17609,0.12507,-0.13002,-0.027962,-0.053495,-0.05347,-0.002472,0.023035,0.074062,0.048536,-0.002443,0.074038,-0.002454,-0.078972,0.023029,-0.13001,-0.15553,0.023054,0.099564,0.5587,0.15057,0.074038,-0.38506,-0.28306,-0.15552,0.4822,-0.35957,-0.20653,-0.002454,-0.002467,-0.002461,0.27814,0.25261,0.048531,-0.23203,-0.15551,0.20158,0.074062,-0.20652,-0.18103,0.15059,0.074075,-0.15552,0.12507,-0.10449,-0.15553,-0.23203,-0.002461,0.099546,0.15058,0.15058,0.099552,0.099577,-0.027987,-0.053488,-0.078977,-0.07899,-0.18101,-0.053464,0.099564,0.30362,-0.053464,-0.18102,-0.02798,-0.18101,-0.4361,-0.053495,0.25263,0.38015,-0.027993,-0.053476,-0.13001,-0.027993,0.32913,1.1964,-0.43612,-0.4106,-0.18101,0.53318,-0.25754,-0.12999,-0.079002,-0.053482,0.048549,0.074038,0.074069,-0.002467,0.023041,-0.053458,0.074057,0.099552,0.074062,-0.05347,-0.079002,-0.053506,-0.078996,-0.15551,0.15058,0.074075,-0.027974,-0.0535,-0.053464,0.023035,-0.02798,-0.1555,-0.079008,-0.002461,-0.053458,0.074051,-0.1045,0.048549,0.2781,0.15058,0.38014,-0.23205,-0.23202,0.048536,0.12509,-0.25754,-0.15551,-0.078984,0.17607,-0.13,0.45666,-0.23202,-0.18102,0.099564,0.2271,-0.18103,-0.027962,-0.078996,-0.20651,-0.002485,0.30362,0.048555,-0.15551,-0.20652,-0.13,0.048561,0.30361,0.20159,0.023035,-0.053476,-0.13,-0.027974,-0.053482,-0.053482,-0.078984,-0.33406,-0.10449,0.5587,0.43117,-0.027974,-0.25755,0.40564,-0.25753,-0.35959,-0.13,-0.027974,-0.002443,0.12508,0.074057,0.12507,0.099552,-0.027962,-0.13002,-0.078972,0.32913,0.30363,-0.30854,-0.002485,0.40566,-0.002467,-0.28305,-0.35956,-0.13002,-0.25753,0.074038,0.12508,0.023047,0.09957,0.048549,0.2271,0.15057,-0.07899,-0.15551,-0.02798,-0.15549,0.099546,0.048573,-0.002491,-0.078972,0.074038,-0.181,0.023023,-0.05347,0.023023,-0.078977,0.048531,0.27812,0.35465,-0.07899,-0.078996,0.3036,-0.28303,-0.3851,-0.25753,0.023054,0.15059,0.074051,0.099564,-0.078977,-0.002479,-0.002454,-0.079008,-0.027956,-0.053482,-0.027969,0.099564,0.074038,-0.027956,-0.053476,0.25261,0.32913,-0.15553,-0.10449,-0.13001,0.17609,-0.027974,-0.4361,-0.1555,0.17609,0.27812,0.2016,-0.027993,-0.28305,-0.18103,0.074044,-0.13,-0.23203,1.1709,0.15059,-0.027998,-0.20653,-0.18102,-0.33407,-0.027956,0.048536,0.12509,0.17609,0.048561,0.12507,-0.002467,-0.027962,-0.13002,-0.20653,0.27811,-0.078996,-0.053464,-0.053482,0.12507,0.048555,0.048531,-0.078977,-0.18101,0.12508,-0.181,-0.20654,0.023054,0.25259,0.023041,0.099564,0.15058,-0.28304,-0.41058,-0.002467,-0.05347,0.099564,0.023041,-0.053476,0.074038,-0.027969,0.45667,0.048531,0.023035,-0.078984,0.2526,-0.2065,-0.30855,0.023035,0.12509,0.048531,-0.053482,-0.10448,-0.10452,0.45667,-0.027987,-0.1045,-0.13001,0.12506,0.12509,0.048555,-0.23203,-0.078972,-0.002467,0.074038,0.023047,-0.10451,-0.1045,0.099559,0.20161,0.12507,-0.13001,-0.1045,-0.28305,-0.23203,0.27812,-0.10448,-0.053495,-0.05347,-0.053495,0.048561,1.0434,-0.002467,-0.30856,-0.33408,-0.05347,0.20159,-0.15551,-0.12999,0.27812,-0.25754,-0.12999,-0.02798,-0.13001,-0.10448,0.20158,-0.18101,-0.053482,-0.053476,0.20161,0.09957,-0.02798,0.023035,-0.20652,-0.10448,-0.027987,-0.002467,-0.027956,0.099552,0.12507,0.27812,-0.002485,-0.1555,-0.1045,-0.13002,-0.10448,-0.002472,-0.002479,-0.002448,0.074057,0.023035,0.32915,-0.07899,-0.18102,-0.181,-0.10452,-0.12999,-0.1045,-0.053482,0.074051,0.94131,-0.181,-0.35959,0.048561,-0.15551,-0.1045,-0.20651,-0.078996,0.099588,0.074038,0.09957,0.048549,0.023023,-0.002461,-0.027993,-0.002467,-0.25753,0.074044,0.023059,0.048549,0.074062,-0.002467,0.023023,-0.10449,-0.053513,0.023041,0.023047,0.023029,0.099583,-0.15551,-0.002467,0.2016,0.30362,-0.1045,0.2781,-0.35956,-0.41059,-0.23203,-0.10448,-0.002467,0.12507,0.3036,-0.002448,-0.13002,0.074051,0.048549,0.023029,-0.18101,0.20159,-0.027956,0.30361,-0.02798,-0.30856,-0.10452,-0.027962,0.023035,0.023041,-0.027974,-0.02798,-0.027956,-0.20652,0.6097,-0.25754,-0.28306,0.1506,0.48216,-0.23203,-0.33406,-0.48713,-0.33406,1.1709,0.91579,1.477,-1.0228,-1.2268,-0.35957,-0.84423,1.0944,-0.41053,0.43118,0.45669,-0.23205,-0.79322,1.2218,-0.86955,-0.53808,-0.35964,1.2473,1.579,0.38013,-0.46158,-0.71664,-1.0993,0.99235,1.5535,-0.66566,-1.0228,-0.8187,-0.61467,-0.028042,0.5332,-0.079021,-0.30859,-0.41057,-0.027925,0.45677,1.7064,0.78812,2.6758,0.12509,-0.76761,-0.71666,-1.3033,-1.6349,0.58419,-0.25752,-0.1556,-0.079014,0.17594,0.32906,-0.8186,0.76285,-0.15557,0.86489,-0.35957,0.38006,0.78825,-0.18097,0.48216,0.32912,-0.61467,-0.58913,0.099577,-0.23204,-0.18104,-0.43606,-0.41059,-0.46161,0.45669,1.477,0.048561,0.023023,-0.1555,0.35464,-0.02798,-0.38511,-0.25755,-0.079008,-0.027969,-0.2065,-0.027969,-0.027969,1.7576,-0.4361,-0.30854,-0.35959,-0.18105,-0.181,-0.12999,0.048567,0.074111,0.60973,-0.30855,-0.10452,-0.56367,-0.18103,-0.5126,1.2474,2.2167,-0.56368,-1.533,0.58414,0.43116,-1.0992,-0.89521,-0.46158,-0.33402,1.4515,0.023047,-0.053495,-0.2065,0.55864,0.91573,-0.25753,-0.23204,0.53321,-0.46159,-0.25753,-0.00243,0.22708,0.12507,-0.41059,-0.33405,-0.33404,0.55871,0.55868,-0.35959,-0.4106,-0.2065,0.60971,0.12507,0.048536,-0.10449,-0.12998,0.17606,-0.23199,-0.18101,0.023047,0.074062,0.30361,0.22708,-0.43607,0.38014,-0.79324,-0.13,-0.46157,2.5228,-0.33413,-0.38514,-0.48711,-0.38506,-0.35954,-0.25754,-0.053482,-0.30853,0.35464,1.579,0.38016,-0.43609,-0.48714,-0.33408,-0.25753,0.58424,-0.12999,-0.33409,-0.38507,-0.13002,0.2526,0.074044,-0.053476,-0.43604,0.45667,0.2526,-0.078984,0.074044,0.22709,-0.053476,-0.28305,-0.12999,-0.1045,-0.58914,0.1251,0.58419,0.53321,-0.30857,-0.56367,0.27815,-0.2065,-0.10452,0.17609,-0.02798,-0.079002,-0.053476,0.6352,-0.23202,0.4057,-0.13003,-0.20653,-0.28303,-0.10448,0.048536,0.074051,0.20158,-0.053451,-0.027987,0.30356,0.60972,-0.20648,-1.3033,-0.3851,-0.15551,-0.12997,0.27812,0.32913,1.426,-0.53814,-0.15551,-0.13001,-0.079021,-0.46157,-0.13001,0.17605,0.38009,-0.10449,-0.30852,-0.053451,0.023047,-0.30856,0.074093,1.0944,0.50768,-0.23202,-1.1759,-1.2779,2.7014,1.8341,-1.0228,-1.2268,-0.94625,-0.46161,-0.23201,-0.10451,0.048531,0.12509,0.27809,0.074033,0.30363,0.91584,0.35465,-0.13001,-0.079002,0.023047,-0.30858,-0.30857,-0.15549,-0.28302,-0.002516,-0.48705,0.15057,0.71166,0.45669,-0.35956,-0.4361,0.023059,0.20161,-0.078996,-0.53815,-0.43609,0.35465,1.5535,-0.28303,-0.69118,-0.28309,-0.33408,0.43118,-0.10451,-0.18101,0.20159,-0.027987,-0.181,-0.10449,0.38014,0.58421,-0.053495,0.20157,-0.078972,-0.71666,0.35465,0.27814,-0.1045,-0.027962,-0.002448,-0.56365,-0.53813,0.17607,-0.41059,0.73726,-0.0535,0.60972,-0.28302,0.074038,-0.078996,0.25261,0.30363,-0.25753,-0.35959,-0.41058,0.15062,0.099564,0.048549,-0.13001,-0.05347,0.3291,-0.12999,-0.23198,0.073989,0.073977,-0.053451,0.1251,0.38015,0.023078,-0.5126,-0.94624,-0.33411,-0.079002,1.7065,0.48217,-0.20653,-0.71665,-0.89522,-0.38511,-0.027956,-0.002467,-0.027969,0.2271,0.048567,0.1761,0.074057,0.30365,-0.15555,0.32917,-0.30855,0.2271,0.5587,0.099546,-0.181,-0.33409,-0.15551,-0.51262,-0.51259,-0.20652,0.43113,0.074057,0.45667,0.20158,-0.20652,0.38014,0.43119,-0.027956,-0.20653,-0.053464,-0.46164,-0.002461,0.09957,-0.12996,-0.41052,-0.079075,0.20155,-0.078953,0.2781,0.40568,0.27814,-0.12999,-0.46162,-0.35961,-0.30857,-0.18102,-0.10444,0.22707,0.17608,0.023041,-0.13001,-0.002454,0.83929,0.78828,-0.51263,-0.7932,-0.078972,-0.23204,-0.1045,-0.23201,-0.43612,0.38016,-0.18101,0.20159,0.099588,1.0944,0.91582,-0.56365,-0.38508,-0.3851,-0.43609,-0.35958,-0.23204,-0.002472,0.40567,-0.18102,0.78825,0.99235,0.58423,-0.89522,-0.97174,-0.15555,-0.079008,-0.25754,0.15058,0.17611,0.22708,-0.23202,0.099613,0.89024,0.32911,-0.46157,-0.23203,-0.23201,-0.4361,-0.38507,0.91581,0.4567,-0.58912,-0.30859,0.2526,0.22708,0.22712,-0.28306,-0.25754,-0.23203,0.048555,-0.002448,0.32908,0.17607,-0.12997,-0.25756,0.53321,0.2016,-0.1045,-0.15549,-0.48712,0.04858,0.38015,-0.4361,0.45667,-0.053482,0.048536,-0.30858,-0.4871,-0.61464,0.5332,-0.027993,-0.15551,0.60974,0.12505,0.5842,0.048555,-0.74218,-0.43609,0.1761,0.60972,-0.4106,0.074038,-0.20652,-0.25755,-0.027969,-0.20651,-0.25754,0.2526,0.38016,0.68622,0.3036,-0.35956,-0.181,0.048549,0.45665,-0.35957,-0.33403,0.074038,0.074002,-0.4871,0.5332,0.12507,-0.53807,-0.027956,0.15063,-0.079026,0.38002,0.20158,-0.23201,0.09957,-0.64014,0.074057,0.43117,-0.58913,-0.38509,0.048543,0.5332,0.3036,0.81379,-0.99729,-0.25753,0.048555,-0.078996,-0.1045,0.074057,0.22712,-0.181,0.55867,0.099552,-0.10448,-0.35958,0.048561,0.35462,-0.66565,0.12508,-0.002467,-0.4871,0.099577,-0.13001,-0.15554,0.048555,0.12505,-0.027969,-0.10448,0.25261,0.25259,0.22707,0.20159,-0.38507,0.023029,-0.38502,-0.43607,0.43112,0.50761,-0.053495,-0.25751,-0.15549,-0.25753,0.099552,0.099601,0.30356,-0.053495,-0.33405,-0.28305,0.50771,0.71175,0.048555,0.32913,-0.56364,0.074069,-0.61465,0.074038,0.25262,-0.30857,-0.7677,0.1506,0.32913,0.32912,0.048561,0.15059,-0.053482,0.40568,0.22708,-0.41058,0.30363,0.048531,-0.25754,-0.35956,-0.20653,-0.10452,-0.002448,0.20159,0.32915,0.30365,0.27805,0.074033,-0.5636,-0.51262,-0.20652,0.40573,-0.33403,0.02301,-0.7677,1.2219,-0.23203,-0.28307,0.27812,0.074075,-0.027974,-0.10448,0.048555,0.43115,-0.58913,0.71176,0.074038,-0.053458,-0.69118,-0.53812,0.15056,0.60972,-0.25753,-0.12999,-0.002479,0.45666,-0.002472,-0.027993,0.20158,0.43118,-0.35956,-0.15554,-0.15549,-0.07899,0.074038,-0.181,0.2526,0.81381,0.023035,-0.56366,-0.69116,-0.81868,0.2526,0.71167,0.89024,-0.51256,-0.51259,-0.43605,-0.64015,-0.38508,0.32915,1.1964,0.22709,0.12506,0.17608,-0.64014,0.17606,0.45669,0.48218,-0.97173,-0.002472,-0.23203,0.12508,0.78827,-0.28303,-0.56363,-0.181,-0.02798,0.20157,0.15057,-0.23207,0.38014,0.048549,-0.078977,-0.20653,-0.18101,-0.10449,0.27808,1.4005,-0.33407,-0.94625,0.074062,0.35461,-0.12998,0.58419,-0.41057,-0.41061,-0.53814,-0.5381,1.1453,1.4514,0.02309,-0.41057,-0.35959,-0.28307,-0.28303,-0.02798,-0.15553,0.048561,0.17607,0.40565,-0.002454,0.023035,0.30364,-0.23204,-0.35954,0.023035,0.15057,0.5587,-0.41055,-0.28308,-0.38508,0.048543,-0.28302,0.15059,0.58419,-0.56365,1.0944,-0.71668,-0.07899,-0.33405,0.17607,0.25262,-0.30854,0.048518,0.023029,-0.053482,0.099546,-0.002479,0.074057,0.15059,0.048549,-0.12996,0.17609,0.3546,0.074002,-0.5126,0.32914,0.17612,-0.66567,-0.56364,-0.002448,-0.1045,0.6097,0.94134,-0.33404,-0.15551,-0.25757,-0.74218,0.27811,0.53318,-0.28306,-0.33407,-0.13002,-0.053451,-0.33399,0.76269,0.55865,0.17611,0.30366,-0.48706,-0.23203,-0.30855,0.048531,0.15058,0.17607,0.17608,-0.46159,-0.18102,-0.002497,0.048549,-0.35957,0.25258,0.074069,0.71177,0.60972,-0.4361,-0.43609,-0.61467,-0.35956,-0.10442,0.2015,0.96677,-0.43605,-0.74215,0.25262,0.40567,0.63523,-0.10451,-0.97176,-0.3851,-0.027944,0.023041,0.074051,-0.027974,-0.15551,0.71174,-0.027969,0.2016,-0.15548,-0.25755,-0.4106,-0.20655,0.78827,0.074062,0.5332,-0.002479,-0.61465,-0.48708,-0.84417,-0.028011,0.78825,0.099559,0.048549,-0.18101,-0.002491,-0.05347,-0.07899,-0.23205,0.48221,0.048543,0.35465,-0.053482,0.30362,-0.33407,-0.64013,-0.43612,0.43117,0.25258,-0.25754,0.09957,0.96683,-0.13,-0.30854,-0.48713,-0.13004,-0.053495,0.60971,0.5077,-0.002467,-0.35957,-0.13,-0.38502,0.17607,0.35455,0.30357,-0.15547,-0.56359,0.048592,-0.027944,0.50767,-0.38506,-0.46163,0.8648,0.09954,0.63523,1.0178,-1.1248,-0.69118,-0.4106,-0.181,-0.20655,-0.02798,0.43117,-0.053476,-0.053488,-0.30855,0.12508,1.2474,-0.078996,-0.23205,-0.23204,0.048573,-0.078984,-0.002485,0.048561,-0.1555,-0.51261,-0.3596,0.074062,0.20163,0.15059,0.023023,0.40566,0.22714,0.048531,-0.13002,-0.74219,-0.69118,-0.25756,0.96684,-0.41057,0.35465,-0.25756,0.17608,0.074062,-0.078959,0.048549,0.32907,0.048561,-0.56361,-0.078984,0.023047,0.45668,0.35464,0.40567,-0.20653,-0.46162,-0.18104,-0.079002,-0.10448,-0.181,0.17604,0.099552,-0.20651,0.32915,0.66073,-0.61463,-0.58914,1.0178,1.2729,-0.48711,-0.43609,-0.41057,-0.76768,-0.23205,0.50767,0.15058,-0.07899,0.2271,-0.53812,0.099583,0.60969,1.0178,0.023047,-0.28304,-0.30858,-0.3851,-0.28304,-0.20653,-0.23203,0.023035,0.30363,1.0433,-0.078977,-0.38507,0.2271,0.20156,-0.41057,-0.61462,-0.41061,0.38014,0.12509,-0.002472,0.22711,-0.2065,-0.053482,0.68622,-0.23202,-0.56363,-0.69116,-0.28302,-0.30855,0.12505,0.86479,1.0943,0.3036,-0.5126,-0.74214,-0.15553,-0.15555,-0.1045,-0.28303,0.074051,0.074069,1.1709,0.60969,-0.46159,-1.0228,-0.5126,0.38018,0.58419,-0.23204,-0.20653,0.66074,0.3036,-0.58917,-0.53812,0.35465,0.81378,-0.25755,-0.30855,-0.46159,-0.078996,0.074044,0.50769,-0.053464,-0.053482,-0.18101,-0.181,-0.15551,0.074051,0.55871,0.023047,-0.43609,-0.15552,-0.02798,-0.028005,0.89029,-0.23204,-0.23204,0.09957,-0.28304,-0.30857,0.12508,0.2526,0.20158,0.20159,-0.28306,-0.002467,-0.002448,-0.30857,0.48218,0.96684,-0.002448,-0.46158,-0.23205,-0.61465,-0.053495,-0.15552,0.55867,-0.23206,0.38017,0.15059,0.32912,-0.51262,-0.33406,0.40564,-0.25754,-0.41055,-0.002479,0.17608,0.22707,0.099552,-0.002412,0.22705,0.27805,-0.25753,0.099588,-0.18101,0.048561,-0.46159,1.7575,0.023035,-0.53812,-0.25757,-0.18102,-0.61463,-0.18102,-0.18103,-0.13,-0.15549,0.8393,0.27812,-0.2065,-0.23205,-0.13002,-0.43609,-0.053482,0.048536,0.15059,-0.002461,0.17606,0.15058,-0.053464,-0.13,0.074051,-0.078959,-0.1045,0.023023,-0.35954,0.023029,0.27806,0.40566,-0.1045,0.30361,-0.20652,-0.71666,0.15059,-0.61461,-0.38512,0.12499,0.89035,-0.05347,-0.28304,-0.15551,0.3036,0.40566,-0.15553,-0.64015,-0.13,1.1709,0.27814,-0.18104,-0.30856,-0.46161,0.099546,-0.48711,1.477,0.32914,-0.56362,-0.5126,-0.28305,-0.10451,0.15058,-0.078972,-0.18101,0.048561,0.099559,0.3291,-0.002448,-0.25751,0.86478,0.30361,-0.23205,-0.10451,-0.23205,-0.053482,-0.053464,-0.81869,-0.18103,0.099552,0.2016,0.45669,1.1454,-0.66569,-1.0482,0.20159,0.2526,2.0382,-0.13001,-0.53812,-0.64016,-0.97176,-0.53814,0.71173,0.074057,0.35467,0.35465,-0.13002,-0.13003,0.074062,0.12509,0.023054,0.20158,0.20159,-0.002472,0.22711,-0.38509,-0.43609,0.5842,-0.74221,0.81378,0.22712,-0.43608,0.32912,-0.3851,-0.30856,0.32915,-0.002461,-0.25756,-0.35956,0.55874,0.27812,0.35461,0.17607,-0.30854,-0.10449,-0.027969,1.0434,-0.3851,-0.56363,-0.53808,0.32913,0.2526,0.023059,-0.61458,-0.13007,0.022956,-0.25754,-0.078947,-0.027956,0.25261,0.048567,0.91581,0.73725,0.48217,-0.15552,-1.2523,0.048518,-0.51262,0.45666,-0.18101,0.099552,-0.027956,0.023072,0.048536,-0.18105,0.25261,0.22712,0.38016,-0.20653,0.048555,-0.33404,0.22709,-0.25755,-0.25754,0.17606,-0.05347,-0.18101,-0.002472,0.09957,-0.30855,0.55869,-0.053488,-0.4616,-0.1045,-0.15552,0.68622,0.3036,-0.027969,0.12508,-0.15552,-0.10448,-0.30854,-0.20655,0.099534,0.074062,-0.07899,0.25259,0.12507,-0.078972,-0.10451,-0.002479,-0.053446,0.048549,0.048536,-0.079002,-0.15549,-0.20654,-0.23202,0.023041,0.40563,0.89029,-0.48712,-0.76772,0.89033,0.12507,-0.38508,0.1506,0.17607,-0.33406,-0.41057,-0.027974,0.32914,0.45667,-0.3851,-0.58914,-0.46156,0.023041,0.048549,-0.07899,0.5587,0.43113,0.32913,0.1506,0.12505,-0.23202,0.048525,-0.56364,-0.94623,-0.30855,-0.002491,0.3291,0.43117,0.09957,0.17607,-0.13,-0.25753,0.048543,0.94131,0.048567,0.099564,0.32913,-0.5381,-0.002461,-0.33408,-0.41058,-0.33407,-0.027998,0.17608,0.38016,1.0689,0.048555,-0.56362,0.38013,-0.35958,0.17608,-0.33408,0.099577,-0.002461,0.09954,-0.002436,0.38017,-0.13002,0.45666,-0.48714,-0.38508,0.2526,0.63523,-0.79316,-0.10451,0.60971,1.0178,-0.69116,-0.027956,-0.3851,-0.002479,-0.25754,0.074044,-0.002461,0.27811,0.22712,-0.078972,-0.053495,-0.28306,-0.15551,0.074051,0.68627,0.023023,-0.25756,-0.38508,-0.4616,0.94134,-0.18103,0.048525,-0.25756,0.45666,-0.28305,-0.35958,-0.43609,0.30364,0.68626,0.074044,-0.002454,-0.33406,-0.53813,0.50767,0.35464,-0.18103,-0.002472,0.35468,-0.66565,0.15055,-0.002454,0.68624,-0.25758,1.2984,-0.41058,-0.02798,-0.43609,-0.53812,-0.33406,-0.18104,-0.25754,0.15056,0.45669,0.68625,-0.1045,-0.078996,0.12509,-0.078972,-0.20653,0.12508,0.17607,-0.027956,-0.33406,0.35465,-0.05347,-0.13002,-0.13002,-0.30855,-0.053495,0.12508,0.22707,0.048567,0.048555,-0.1045,-0.10449,-0.18102,-0.078984,-0.28306,-0.56358,0.2271,0.78826,1.0178,-0.13002,-0.51261,0.30361,-0.38508,-0.38509,-0.53812,-0.30855,0.12508,0.6097,-0.053476,-0.002485,0.023047,0.099577,-0.35956,0.43115,1.5535,-0.58915,-0.58914,-0.66567,-0.64015,0.27812,0.68622,0.38017,-0.61467,-0.56363,-0.18101,0.73727,0.48217,0.22709,0.048531,-0.053495,-0.18098,-0.18102,0.2016,0.17606,-0.18103,-0.10447,0.023041,-0.1045,-0.053464,-0.1555,-0.10452,-0.002467,-0.002461,0.12505,0.58424,-0.28302,0.074033,0.30363,-0.23204,0.73725,-0.13,-0.51262,-0.48711,-0.33405,0.53318,-0.23203,0.63524,-0.58914,-0.35957,0.20161,0.048555,-0.28305,-0.10448,-0.027998,0.66074,0.43118,-0.079002,-0.48711,0.17608,0.68624,-0.12998,-0.58916,-0.33407,-0.41058,-0.58914,0.35465,0.20159,0.074057,-0.10449,0.023035,-0.20653,-0.28305,0.43117,0.40565,0.35465,0.45666,-0.53811,-0.13002,0.1251,0.25257,-0.05347,-0.4361,-0.20653,0.023047,-0.027956,0.099552,0.17608,-0.027962,0.40566,0.02301,-0.002454,0.048531,-0.25753,-0.15551,-0.20651,0.45665,0.27812,0.50768,-0.76764,-0.15551,-0.13002,-0.079026,0.074075,0.099552,0.048561,-0.25756,-0.002467,-0.20653,0.023047,0.40566,-0.35959,0.023035,0.35465,0.83928,-0.28304,-0.3851,-0.20652,-0.02798,-0.5126,-0.28305,0.074026,1.2985,0.83927,-0.35957,-0.7932,0.50769,-0.35957,-0.76771,-0.078984,-0.1045,0.32914,-0.053495,0.12508,0.099564,0.2016,-0.002472,-0.30856,0.76276,-0.25756,-0.33404,-0.35959,0.27813,-0.1045,0.12509,-0.15553,-0.053482,0.12507,0.099564,-0.18102,-0.07899,-0.30855,0.45665,0.8393,-0.33407,0.048549,-0.33406,-0.20652,0.023059,0.074038,0.73726,-0.41057,0.074033,-0.33406,-0.35957,0.5587,0.023054,0.48216,-0.1555,-0.23203,0.27812,-0.23203,-0.053495,-0.1045,0.09954,0.074075,-0.66565,-0.58914,0.86482,1.5535,0.30363,-0.35957,0.2271,-0.81871,-0.94624,-0.64015,0.12506,-0.10449,0.3036,0.15057,-0.053464,0.023041,0.1761,0.12508,0.32913,0.09957,0.32913,0.04858,-0.23201,-0.18105,0.27811,-0.30856,-0.43611,-0.43609,0.43118,-0.027974,-0.20652,0.074044,0.15059,-0.15549,0.73723,0.63523,-0.13002,-0.053458,-0.35957,-0.64016,0.17608,-0.053495,0.023023,-0.07899,-0.18104,0.1761,-0.002491,0.22712,0.71173,-0.35955,0.099559,0.15059,0.2781,0.86482,-0.51265,0.27813,-0.61467,-0.69116,-0.66566,0.099559,0.9158,1.0434,-0.18102,-0.027987,-0.74218,-0.56364,-0.15547,0.38008,0.27814,0.074057,0.074062,0.12509,0.25259,-0.027969,-0.28306,-0.30857,0.15062,0.83928,-0.12999,0.35461,-0.84423,-0.28306,0.76275,0.099577,-0.1045,-0.64017,-0.25753,0.099559,0.78825,0.2016,-0.46161,-0.4106,0.17609,0.27812,0.48216,-0.56364,0.074075,0.023029,0.074075,0.22712,-0.18105,-0.20653,0.96684,-0.23202,-0.35958,-0.05347,-0.28305,-0.35957,0.38016,-0.053476,-0.002472,0.25259,0.099577,-0.10444,-0.15553,-0.002503,0.25261,-0.05347,-0.027969,-0.053476,-0.12999,-0.078977,-0.027993,0.30364,0.023047,0.58421,-0.33407,-1.1758,-0.30856,1.4515,-0.25753,0.35461,0.023047,-0.38509,-0.079008,0.15058,-0.43609,-0.48711,-0.053464,-0.10449,-0.58914,0.99234,1.2984,0.89029,0.38016,-0.69116,-0.48711,-0.41058,-0.41058,-0.48708,-0.35957,0.45666,0.58422,0.78826,0.22707,-0.18098,-0.46161,-0.71668,-0.28303,0.023041,0.12505,0.17609,0.1251,0.2526,0.35464,0.048555,-0.20654,0.17608,-0.23202,-0.48712,0.71175,0.32915,0.25261,0.48218,-0.86972,-0.58914,-0.81871,-0.1555,0.60971,-0.10451,0.17611,-0.28305,0.35463,0.5587,-0.25755,-0.23206,-0.18101,0.15059,0.25259,0.15059,-0.38508,1.3749,-0.13,-0.181,-0.13002,-0.43609,0.22709,-0.23204,-0.23204,-0.33409,-0.10448,-0.07899,-0.027998,0.023065,0.099577,0.15056,0.27814,-0.18101,-0.13001,0.32915,0.12505,0.1506,-0.002467,-0.41059,0.5332,-0.1045,0.32913,-0.18101,-0.12998,-0.53815,-0.76768,0.27812,-0.13001,-0.027974,0.89031,-0.25754,-0.20653,-0.33405,-0.027987,0.1506,-0.027974,0.38013,0.20158,-0.20652,-0.46161,1.2219,-0.38508,-0.053488,0.55872,0.023047,-0.38509,0.27812,-0.078984,-0.41061,-0.35957,-0.35956,-0.23205,-0.078972,0.20159,0.71176,-0.46161,1.0178,0.99233,0.25261,-0.92073,-0.35959,-0.35956,-0.4106,-0.18101,-0.23202,0.099559,0.27812,0.48217,0.43116,0.048536,-0.38507,-0.12998,-0.92077,0.38018,0.50766,0.63525,0.35464,-0.43609,-0.43611,-0.25754,-0.23204,-0.6912,-0.30855,1.0434,0.76278,-0.35956,-0.28306,-0.18103,0.32913,-0.33409,-0.20654,0.30364,-0.79321,0.38017,0.66074,-0.33404,-0.02798,-0.58915,-0.078996,-0.58913,1.1709,0.50769,-0.002448,0.048536,-0.30856,-0.35954,0.30361,-0.1045,-0.20652,-0.28308,-0.078966,1.6045,-0.15551,-0.71668,-0.1045,0.023047,0.023041,-0.23203,0.71176,-0.079008,-0.5381,-0.20653,0.50768,-0.61462,0.48218,-0.18102,0.074051,-0.053488,-0.56364,0.074051,-0.13,0.68627,0.63523,-0.92074,0.30361,-0.10449,-0.18104,-0.15551,-0.13001,-0.13004,0.38016,0.45667,-0.078972,-0.51263,-0.027956,-0.15553,0.2271,0.35465,1.2219,-0.51259,-0.28308,-0.51261,-0.71668,-0.15551,-0.027969,0.73725,-0.027956,-0.002485,0.023029,-0.002467,-0.25753,-0.078977,0.048525,-0.027969,0.60972,-0.078972,-0.43611,0.048531,-0.12999,0.22708,-0.33405,0.48218,-0.053495,0.78827,-0.56365,0.023054,0.32912,-0.1555,-0.38511,0.76278,-0.25754,-0.89524,0.17609,0.50769,0.074057,-0.027998,-0.053464,-0.10449,0.12507,0.32913,-0.13001,-0.46159,-0.48713,-0.027962,0.48216,0.55872,0.55871,0.66075,-0.43609,-0.33409,-0.74218,-0.92076,0.30365,0.17607,-0.10447,-0.027974,0.074044,0.17604,0.53321,-0.13002,-0.46158,0.22711,0.68625
-0.12999,-0.33409,0.15057,-0.15551,0.12507,-0.002467,-0.002479,-0.15549,0.25262,-0.12999,0.15057,-0.02798,-0.02798,0.074033,-0.2065,0.099552,0.074051,0.15057,-0.078972,0.074051,-0.078984,0.048536,-0.10448,-0.053488,-0.027974,-0.053488,-0.027974,0.048549,0.12508,-0.002467,0.023041,-0.053488,-0.078996,0.074038,-0.078972,-0.053482,0.023041,-0.027969,0.17607,-0.053464,0.074044,-0.1555,0.099546,-0.15551,0.048543,-0.05347,-0.002467,0.074057,0.048555,0.023041,0.048543,-0.10449,-0.1045,-0.07899,-0.13,-0.25754,0.48218,0.074062,0.074062,0.099564,0.074062,-0.28305,-0.18103,-0.002467,-0.18102,-0.13001,-0.05347,0.32912,0.048567,0.25259,-0.027956,-0.0535,-0.027974,0.023035,0.074057,-0.13,-0.23203,0.58422,-0.053482,-0.33404,-0.053488,-0.25754,-0.07899,-0.053482,0.2271,0.2271,-0.027974,-0.13001,0.023054,0.20159,-0.053482,-0.053482,-0.18101,0.023017,-0.12999,0.048543,-0.30854,0.48218,0.099559,-0.053488,-0.053476,-0.027969,-0.18102,-0.02798,-0.18102,-0.10449,-0.027974,0.38016,-0.002461,0.22711,-0.33406,-0.20654,-0.25753,0.22709,-0.078972,-0.027987,-0.078977,0.2781,0.023059,0.099546,0.074062,-0.07899,0.048536,-0.10449,-0.1045,0.12506,0.023035,0.048549,0.15057,-0.10449,-0.1045,0.63521,-0.1045,-0.28305,-0.053495,-0.078984,-0.078984,0.22708,0.20159,-0.20651,0.023041,0.074038,-0.20652,-0.02798,0.074038,-0.10448,0.023047,0.17606,-0.10448,0.048555,0.023041,-0.10449,0.023029,-0.1555,-0.28305,0.048549,0.074075,0.43116,0.099552,-0.25753,-0.002479,-0.18102,-0.078977,0.20158,-0.30855,-0.38506,0.15057,0.048561,0.12508,0.09957,-0.002448,0.17607,-0.05347,0.023035,-0.13,-0.002467,0.074057,-0.053476,0.099546,-0.002454,-0.027969,-0.002467,-0.13,-0.10452,-0.002467,-0.181,0.48216,0.20159,-0.181,0.023041,-0.15551,0.023035,-0.1045,-0.15551,0.2781,-0.28302,0.17608,-0.1045,-0.053482,0.60971,-0.002443,0.27812,-0.51263,-0.35957,0.20159,-0.002467,-0.13,-0.078972,0.048543,0.023047,0.023047,-0.027969,-0.002472,0.048555,-0.027969,-0.28303,-0.002479,0.09957,0.12508,0.048536,0.099577,-0.002485,-0.18102,-0.15552,-0.078984,-0.13,0.048555,-0.078972,0.023029,0.048561,-0.027969,-0.027969,-0.10449,-0.053482,0.048536,0.099559,-0.002448,-0.18095,0.27805,-0.002472,-0.10448,0.074044,0.023047,-0.28303,-0.15551,0.12507,-0.053476,-0.23202,0.43115,0.15058,0.40568,0.32912,-0.20655,-0.35959,-0.41059,-0.20653,-0.002472,-0.10447,0.22708,0.023041,-0.12998,0.20159,-0.13001,-0.25753,-0.002479,-0.027969,0.17609,0.5842,0.023041,-0.002472,0.048531,-0.18101,-0.13001,-0.002485,-0.20652,0.17606,-0.078984,-0.027974,0.22708,-0.10447,0.27811,-0.027969,-0.25753,-0.027993,-0.13001,-0.23202,0.099564,0.023047,0.30363,0.099552,-0.12999,-0.053482,0.099552,-0.33405,-0.25754,-0.002472,0.38016,0.83927,-0.23203,-0.38508,-0.33407,-0.23203,0.30364,-0.15553,-0.027974,-0.13,0.17607,0.023047,0.023059,0.22709,0.074057,-0.053488,-0.002479,0.048549,-0.05347,-0.23204,-0.053488,0.12509,0.2016,-0.18101,0.023041,0.099546,-0.053482,-0.20651,0.023029,-0.02798,-0.07899,0.25259,0.074075,-0.002467,0.048536,-0.002454,-0.12999,-0.18103,-0.02798,-0.002448,-0.053476,0.048555,-0.053464,0.58419,-0.07899,-0.51262,-0.13001,0.17607,0.20161,-0.10449,-0.027993,-0.053476,-0.15549,-0.053482,0.023035,0.40567,-0.25754,-0.0535,0.023035,-0.053482,0.15056,0.12508,-0.027956,-0.002467,0.12507,-0.027974,-0.18101,-0.002479,-0.002467,-0.2065,0.074044,0.048536,-0.002448,0.45666,-0.027969,-0.28305,-0.18102,-0.027956,-0.07899,-0.20652,-0.002448,0.20158,0.023047,0.099564,0.048549,-0.053476,-0.027993,-0.25753,0.023023,-0.078984,-0.10449,0.53318,0.27814,0.12506,-0.053482,-0.28304,-0.10452,-0.23202,-0.23203,-0.027969,-0.078966,0.12507,0.2016,-0.05347,0.099559,-0.078984,-0.07899,-0.053482,-0.05347,0.27812,-0.002467,-0.15549,0.048536,-0.002461,-0.053482,0.074044,-0.1555,-0.078996,-0.027987,-0.10448,-0.002467,0.099559,0.09957,0.023035,0.048531,-0.02798,-0.15549,0.25259,0.074051,-0.18102,0.15057,-0.20652,-0.02798,0.20158,0.074069,-0.1045,-0.1045,-0.181,0.17609,0.45667,-0.15549,-0.35956,-0.053495,-0.20652,0.27812,0.023035,-0.38505,-0.15552,-0.1045,-0.002461,0.20158,0.023047,0.12508,0.023047,0.074057,-0.002467,-0.15551,0.048536,-0.20652,-0.002467,0.2526,-0.10448,0.55869,0.023041,-0.1045,-0.23204,-0.13,-0.027974,0.048531,-0.10449,0.15057,-0.027969,0.2271,0.074062,0.074057,-0.002485,-0.28304,-0.002467,0.12507,-0.078972,0.12505,0.074057,0.023047,0.22708,-0.078984,-0.10449,-0.027993,-0.20651,0.2781,-0.027974,-0.1045,0.12505,0.023059,0.048543,0.048549,-0.078996,-0.002485,-0.12999,0.074057,-0.15552,-0.23203,0.45667,0.17609,0.1742,-0.10449,-0.10449,-0.33407,1.2219,-0.46159,0.023029,-0.30856,-0.20653,-0.13002,0.074051,0.048555,0.15056,0.12507,-0.002467,0.099546,-0.05347,-0.002479,0.048549,0.15059,0.15056,-0.002448,-0.002467,-0.027993,-0.20652,-0.078996,-0.027993,-0.002454,-0.027969,0.074044,-0.002461,0.15058,-0.053495,-0.10449,-0.10447,-0.10451,-0.078984,0.048561,0.12506,0.099564,0.17609,-0.002467,-0.002485,-0.002454,0.023041,-0.13001,-0.027956,-0.002485,-0.002467,0.048555,0.099552,-0.027956,-0.078996,-0.1045,0.25263,-0.10451,-0.1045,-0.002467,-0.002485,0.099564,0.12508,-0.079002,-0.23203,0.2526,-0.027993,0.023041,0.4822,-0.20654,-0.25754,-0.10448,0.023023,0.048543,0.074062,0.099552,-0.002461,-0.23204,-0.10452,0.099583,0.15058,0.099552,0.71175,-0.027974,-0.079008,-0.13001,-0.18101,-0.20653,-0.053495,0.074057,-0.002454,0.023035,0.048555,0.023047,-0.053482,0.12506,-0.12999,-0.10449,-0.002479,-0.002461,0.023059,0.023041,0.2781,0.048555,0.023059,-0.15551,-0.13001,-0.18101,-0.079002,-0.18101,0.048567,0.074062,0.074044,0.38014,0.2526,-0.15553,0.17609,-0.33405,-0.079002,0.68625,-0.35957,0.099559,-0.078977,-0.30856,-0.15551,-0.07899,-0.027987,0.32913,0.023035,-0.23205,0.023059,-0.4361,0.12508,1.7065,0.074038,-0.23204,0.048543,0.38013,-0.8442,-1.2013,0.58419,0.4312,-0.86974,-0.53811,-0.027962,-0.23205,0.91581,-0.4361,-0.18103,-0.18104,2.7779,5.2521,0.38009,-2.1706,-3.7262,-2.2981,0.37976,0.022821,-0.053433,-0.64013,-0.41051,0.50778,1.8341,1.9616,0.35465,-0.43611,-0.20657,-1.9155,-0.6657,-0.18105,3.2115,1.1964,-1.3799,-1.6095,-1.2268,2.0382,-0.66568,-0.41063,0.15053,-0.053446,0.074044,0.38011,0.22713,0.12513,-0.078928,-0.027969,-0.12998,-0.02798,0.38005,0.25252,-0.12998,0.76281,-0.12994,-0.46155,-0.3851,0.02295,-0.23212,-0.00251,0.099637,-0.002369,0.30369,0.78816,1.0688,-0.38506,-0.53811,-0.48711,0.12507,-0.64014,-0.28304,-0.38508,0.89034,2.3952,-0.15554,-1.1248,-0.86975,-0.61467,-1.1503,-1.0993,-0.7677,2.5483,1.579,-0.027969,-0.41058,-0.10451,0.099552,-0.61465,-0.48714,-0.4871,0.5587,1.1199,-0.05347,0.048525,-0.51262,-0.51262,-0.4106,-0.15551,0.099588,-0.35955,0.25263,0.099559,0.78824,-0.027993,0.27809,-0.078972,-0.4616,0.2271,-0.30856,0.099601,0.15052,-0.079033,-0.41052,0.048531,0.30366,-0.181,-0.10453,-0.181,0.45659,0.27811,0.22712,-0.05347,-0.28304,-0.078966,0.17606,0.15056,-0.002472,-0.027962,0.04858,0.12505,-0.53814,-0.33409,0.38014,0.81381,-0.18098,0.15056,0.2271,-0.46161,-0.92079,0.023035,0.38016,0.023054,-0.10449,0.048561,0.91583,-0.33406,-0.56362,-0.30858,-0.13002,0.22709,0.6097,-0.35955,-0.18101,-0.05347,-0.23202,1.4259,0.17609,-0.56364,-0.3851,-0.053482,-0.10449,-0.07899,-0.027969,0.048531,0.15057,0.48223,0.32908,0.40558,-0.53812,-0.79316,-0.078923,0.53315,0.32909,0.20161,-0.61467,0.048567,-0.18101,0.71176,0.63521,-0.79322,-1.0738,-0.18101,-0.46153,0.68622,0.38011,0.15056,-0.002497,0.43118,0.15059,-0.053495,-0.35956,-0.002467,0.1506,-0.4106,0.40566,0.20159,0.17609,-0.4361,-0.76769,-0.30856,-0.10449,0.73724,-0.13,-0.46162,0.35463,0.43115,-0.23203,-0.35957,-0.028005,-0.1045,-0.43604,0.20155,0.83921,0.48223,-0.35955,0.60974,-0.10449,-0.46163,0.30364,-0.46161,-0.53812,-0.25756,0.099564,0.2271,-0.28306,0.2781,-0.38503,0.2016,0.35454,0.15058,0.30368,0.25264,-0.53812,0.048555,-0.51259,0.048512,0.83925,-0.23202,-0.33406,-0.3851,0.27812,-0.10448,-0.38507,-0.25754,-0.002448,0.58421,0.66072,-0.51262,-0.7167,0.25263,1.528,-0.002485,-0.53814,-0.43609,-0.35956,-0.53812,-0.13001,-0.027969,0.09954,0.048561,0.17611,0.40561,0.2526,0.20159,0.15059,-0.23202,-0.078959,0.32912,0.32908,-0.43612,-0.33405,-0.12998,-0.10449,0.63524,-0.1045,-0.20656,0.38016,-0.2065,-0.76769,-0.25756,-0.02798,0.12509,-0.053488,-0.20652,0.43115,0.48216,-0.053482,0.78828,-0.38511,-0.81871,0.71175,0.43118,-0.51262,-0.10447,1.579,-0.53815,-0.7167,-0.25754,-0.28305,-1.0483,0.15058,-0.33407,0.074062,0.30363,0.22708,0.50771,-0.28304,0.2781,0.38012,-0.20652,-0.027944,0.27811,-0.20655,-0.20651,-0.078959,0.048536,-0.23202,-0.181,-0.028011,0.02301,-0.181,-0.10448,0.048525,-0.13,0.43117,0.048549,-0.027993,-0.13001,0.30362,-0.35959,-0.05347,-0.078977,-0.76772,0.27815,0.66072,0.22708,0.81378,-0.7422,-0.053506,-0.15551,-0.66567,-0.61466,-0.181,-0.07899,0.40563,0.76275,-0.46162,0.2526,0.89032,0.53321,-0.38509,-0.53815,-0.25754,0.048561,-0.053476,0.023017,0.5332,0.25261,-0.002472,-0.33408,-0.4871,0.12504,-0.30854,-0.13001,0.2526,0.048555,0.22709,0.17607,-0.20652,-0.027969,0.25262,-0.002467,0.048543,0.2526,-0.20653,-0.33407,0.38016,-0.3851,-0.4616,0.09957,0.9923,-0.53812,-0.74216,-0.02795,0.53317,-0.46161,-0.25753,0.38015,-0.23202,0.17605,0.45666,0.32913,0.50766,0.12513,-0.07899,-0.46167,-0.94628,-0.94623,1.5535,0.60972,-0.23202,0.1761,-0.56363,-0.41061,0.32915,0.58418,0.58422,-0.23205,-0.61463,-0.079008,0.12505,-0.23205,-0.35953,-0.12999,1.0434,-0.002497,-0.38507,-0.30859,-0.15553,0.023017,-0.35954,0.15058,0.32915,0.17608,0.074062,-0.1555,-0.10449,0.048543,-0.027944,-0.30865,0.89027,-0.25751,-0.30853,-0.02795,0.023047,-0.28303,0.17607,-0.4616,-0.51257,0.76267,0.32907,0.048573,0.38018,-0.71666,-0.053495,-0.33405,0.60969,-0.71668,-0.13001,0.58422,-0.25754,-0.20652,-0.079014,-0.23204,0.25262,0.048555,0.96681,0.048531,0.074075,-0.10447,-0.18105,-0.25754,-0.1555,0.074038,-0.053488,-0.10449,0.22711,0.43116,-0.38505,-0.4361,-0.86974,1.0944,0.89032,0.58417,-0.25757,-0.48712,-0.58911,-0.64011,-0.18101,0.074044,-0.027956,0.12504,0.3801,0.35464,0.32915,1.426,0.048549,-1.2523,-0.89524,-0.38508,0.5587,0.048549,-0.12999,0.074038,-0.53811,0.50767,0.63521,-0.4616,-0.053482,-0.25754,-0.20652,0.89029,-0.35955,-0.30856,-0.1045,-0.10451,0.074057,-0.002467,0.099564,-0.23203,0.023047,0.27813,0.83928,-0.30857,-0.002467,0.023054,-0.18103,-0.10449,-0.28304,-0.33406,-0.28306,0.12508,0.12507,0.32913,0.38014,-0.30855,-0.18103,-0.1045,0.17612,0.78825,1.2984,-0.8952,-0.33408,-0.053525,-0.35957,-0.46159,-0.30856,0.023035,0.45669,0.22712,-0.51258,0.27811,0.55869,0.35462,0.48214,-0.25753,0.27811,-0.20653,0.15058,-0.28307,-0.53811,0.099577,0.12505,-0.5126,-0.13001,0.86478,-0.13002,-0.4616,-0.61465,0.99234,0.32914,0.60971,1.0178,-0.86974,-0.48713,-0.46161,-0.002479,-0.05347,-0.053476,0.12505,0.023035,0.099559,0.35465,0.12509,-0.02798,0.40565,0.50769,-0.25757,-0.002467,0.32915,-0.56366,-0.51262,-0.28303,0.17607,0.17609,-0.12999,0.22708,-0.20652,-0.23205,-0.079014,-0.28305,-0.002399,0.27812,0.86468,1.1454,-0.74216,-0.79318,-0.38508,-0.23203,-0.18099,0.22708,0.25259,0.60973,-0.20656,0.1761,0.55872,-0.71666,-0.23204,0.023041,0.2781,-0.64016,-0.28306,0.048549,-0.18099,0.94131,0.023041,0.2271,-0.66567,-0.41056,-0.10452,0.30363,0.099583,-0.41058,-0.25756,1.3239,0.04858,0.50765,-0.38509,-0.86968,-0.23203,0.12505,0.53318,0.22711,-0.38508,-0.23203,-0.10449,0.074033,0.38014,-0.07899,-0.20652,-0.25748,0.25256,-0.002497,-0.10447,0.43117,0.35466,0.73725,-0.38509,0.20159,-0.46159,-0.64014,0.074038,-0.15551,-0.002485,-0.38509,-0.10449,0.58421,0.89031,-0.23205,0.35463,0.43117,-0.58913,-0.4871,-0.23206,0.099564,-0.13002,0.074062,-0.18099,0.099552,0.55868,-0.07899,-0.56364,1.0689,0.15059,0.048555,-0.48711,-0.23202,0.099521,1.0178,-0.53812,0.15059,-0.181,-0.3851,-0.30854,-0.18103,0.15061,0.09954,0.45666,-0.15552,-0.15553,-0.20652,0.023047,0.30366,-0.23204,-0.079002,0.99235,-0.35954,-0.4871,-0.028042,0.099521,-0.35952,0.48221,-0.23203,-0.53814,-0.028005,0.38016,1.0178,0.2781,-0.84421,-0.81871,-0.28306,-0.078984,-0.002461,0.099577,0.048567,0.35464,0.50768,0.074026,0.30363,-0.30856,-0.30855,-0.38508,-0.41058,0.91581,-0.28305,0.58422,0.40564,-0.28306,-1.1503,0.27812,-0.41057,0.048536,-0.25754,-0.13001,0.55869,-0.1555,-0.053482,-0.027938,0.55867,-0.1045,-0.10452,-0.027993,0.04858,0.30364,-0.027969,-0.13003,0.32913,0.074087,-0.079002,-0.51262,-0.33405,0.023029,0.25267,0.048543,-0.028042,-0.25756,0.074075,0.60975,0.074062,-0.69116,-0.74221,-0.53811,0.25262,0.35464,0.63523,-0.002479,-0.30858,-0.002461,0.25259,1.0179,-0.4361,0.38015,-0.56362,-0.12998,-0.20652,-0.18102,-0.18104,-0.027974,0.074057,0.2271,0.074087,0.099552,-0.002467,0.32915,0.43113,-0.20649,-0.58914,-0.18104,0.38017,-0.38508,-0.48711,-0.20655,1.2219,0.12507,-0.23205,-0.25753,-0.30856,-0.41057,0.20158,0.63524,0.09957,-0.38509,0.27811,-0.23202,-0.10449,-0.38509,0.66073,-0.20652,0.023023,-0.35956,-0.002467,1.3495,-0.13002,-0.99732,1.0943,-0.28303,-0.13,-0.5381,-0.3851,0.17611,-0.10451,0.023035,0.12509,0.023023,0.048561,0.074044,-0.053476,0.40566,-0.12999,-0.13,0.048531,0.17609,0.53319,0.20158,-0.58915,0.023041,0.074075,-0.7167,-0.5126,0.20158,0.50771,-0.23205,-0.10446,-0.28304,0.43114,-0.079033,0.22712,0.58419,-0.38506,-0.46161,-0.13,-0.002472,0.074093,-0.20653,-0.053458,-0.002479,0.048561,-0.027944,0.68619,-0.23208,-0.43607,1.0689,0.12507,-0.69117,-0.81869,-0.12999,0.099564,0.2526,-0.23204,0.9158,0.38016,-0.53812,-0.56366,0.40568,0.2271,0.074057,-0.23204,-0.25753,0.074051,0.074069,0.50767,-0.027993,-0.13001,-0.053464,-0.027974,-0.053464,-0.079008,-0.078972,0.023023,-0.002479,0.048549,0.1761,-0.41057,-0.027969,1.7065,-0.13001,-1.3289,0.074069,-0.48712,-0.33406,0.074062,0.048543,0.048531,-0.38506,0.83934,0.35462,0.53311,-0.1555,-0.33406,-0.25753,-0.15552,0.73725,-0.25753,-0.1045,0.17608,-0.10449,-0.23204,-0.078984,-0.41058,0.60971,-0.18103,-0.002454,0.074057,0.12507,0.09957,-0.28303,-0.20654,0.38011,0.023029,0.22714,0.074038,-0.43608,-0.33407,0.55872,-0.48713,-0.43609,-0.1045,-0.28306,-0.15551,-0.20655,-0.027938,2.0127,0.22711,-0.92074,-0.61464,-0.5381,0.83925,0.22707,-0.61466,-0.23205,0.048536,-0.283,-0.079008,0.022974,0.63524,-0.12996,0.12507,-0.18103,-0.15549,-0.10449,-0.027993,-0.07899,-0.13,0.1251,0.81377,-0.079002,0.20159,-0.20655,-0.43609,-0.25753,0.20158,-0.053476,0.099588,0.099559,-0.13002,0.15059,-0.79321,1.1454,-0.20652,0.68624,0.099577,0.17609,-0.15554,-1.1758,-0.30852,0.8903,0.1761,-0.51266,-0.38507,-0.28301,-0.20653,0.12507,0.09957,0.71176,-0.10447,-0.0535,0.17607,-0.002485,-0.30855,-0.41057,0.1251,0.048518,-0.15546,-0.12996,-0.002558,0.43116,-0.002443,0.12508,-0.61463,0.15058,-0.18103,-0.25754,-0.25753,-0.23204,0.25259,0.66074,-0.078959,-0.079021,-0.35957,0.43116,-0.23204,0.023072,-0.078996,-0.15554,0.074062,0.40568,0.35464,-0.4361,-0.027974,0.3036,-0.02795,-0.94627,-0.053495,-0.41057,-0.002454,-0.002467,-0.053464,0.22708,0.35464,-0.33407,0.17608,0.2526,-0.079026,0.32917,0.048561,-0.18101,0.71175,0.15056,-0.41059,-0.81866,-0.33409,-0.10457,0.58422,-0.053451,-0.28303,-0.078984,0.12507,1.0689,-0.30859,-0.41059,-0.25753,-0.078984,0.48218,1.1454,-0.35956,-0.1045,-0.20653,-0.15552,0.76275,-0.69115,-0.81871,0.22712,0.20159,-0.28306,-0.002448,0.30361,0.5587,-0.05347,0.023017,-0.38508,-0.23203,0.17607,0.27812,-0.002443,0.17612,-0.18104,0.048543,-0.25756,0.048543,0.30363,-0.25756,0.074069,0.023029,0.32914,-0.078941,-0.13001,0.022998,-0.053488,-0.28303,-0.23204,0.09957,-0.23202,0.099546,0.074062,0.099577,-0.027974,-0.23204,0.074038,-0.027969,0.30366,-0.66567,1.1454,-0.53811,-0.33409,0.17607,0.12511,-0.12998,-0.48714,-0.53815,0.17608,-0.10449,-0.30855,0.22708,0.20159,0.38017,-0.13001,0.83927,-0.15551,-0.0535,-0.181,0.074038,-0.002461,-0.12999,-0.07899,-0.053482,0.023054,0.12507,-0.18097,0.22703,-0.51265,1.1454,-0.28303,-0.25752,-0.002461,-0.92073,0.17607,-0.4871,0.048573,0.73725,0.099559,-0.35956,0.9413,-0.28304,-0.69118,-0.23205,0.20161,0.58419,0.074062,0.048555,-0.41058,0.32913,-0.35956,-0.3596,-0.13001,1.8086,0.66072,-0.07899,-0.86972,-0.30858,-0.4361,0.30362,-0.46163,-0.12998,0.27812,0.73725,0.023035,-0.079002,-0.53809,-0.053495,0.30363,-0.20652,0.023023,0.023047,-0.15549,-0.28302,0.048555,0.5076,-0.15553,-0.027944,-0.35953,-0.05347,-0.13001,0.40569,-0.38508,-0.94622,1.6045,1.1199,0.38011,-0.3086,-1.0993,-0.99726,-0.33406,-0.43611,0.89032,0.53319,-0.53812,0.50769,-0.15552,-0.30855,-0.30854,0.048531,0.074038,-0.12995,-0.053446,0.15057,0.22713,0.58413,-0.053544,-0.33405,-0.25751,-0.18101,0.38018,-0.10452,-0.56362,-0.18101,0.68622,0.96683,0.20157,-0.79321,0.023059,-0.3851,-0.41057,-0.43608,0.30363,0.71172,-0.20649,0.63526,-0.053555,-0.33407,-0.43607,0.09957,-0.002461,-0.027956,0.50768,0.22708,-0.61466,0.40566,-0.38508,0.68621,-0.41058,-0.61464,-0.28307,0.25262,0.35463,-0.23203,-0.078984,0.76274,-0.41059,0.023047,-0.43612,0.81378,-0.30856,-0.66567,0.20159,0.35465,-0.28306,-0.027962,0.30361,-0.41058,-0.002479,0.2526,-0.41058,-0.23205,0.09957,-0.053495,1.1709,-0.58914,0.27814,0.17608,1.2474,-0.79323,-0.46159,-0.81872,-0.58914,-0.69115,0.25259,0.20155,0.04861,0.35464,0.023054,0.40566,-0.13,-0.18101,0.58422,0.17607,-0.20655,-0.18105,-0.2065,-0.4871,-0.027974,0.20159,1.0433,0.27811,-0.58914,-0.69116,0.12507,0.38015,0.22707,-0.69114,-0.53809,-0.10452,0.176,-0.027962,0.81383,0.1761,0.048536,0.17609,0.40571,-0.20655,-0.35956,-0.56361,0.073989,-0.002491,-0.002448,0.45669,-0.18102,0.32915,-0.64015,-0.58916,-0.078977,0.25262,-0.28309,0.048549,1.2984,0.63524,-0.58913,-0.94626,-0.69119,-0.46162,1.0688,0.099595,-0.10451,-0.20653,0.12508,-0.41057,-0.33399,0.2781,-0.028011,-0.002491,0.30363,0.53322,-0.48713,-0.69115,0.71175,-0.18102,-0.41059,0.43119,-0.15552,0.43118,-0.46161,0.074038,-0.41055,0.25259,0.78821,-0.23201,-0.58914,0.50776,0.15056,0.30356,-0.61465,-0.58913,-0.20651,0.22711,0.30364,0.3291,0.2526,0.074075,0.099546,0.15057,-0.10448,-0.43608,0.048525,0.40566,0.074093,-0.30855,-0.56363,-0.25757,-0.25757,0.17609,-0.002467,0.04858,0.60975,-0.13002,-0.28306,-0.4106,-0.25751,0.55872,-0.053544,0.40566,-0.41058,-0.5126,-0.20651,-0.20647,0.60967,0.60969,-0.00243,-0.20652,-0.20654,-0.51263,-0.41057,0.048531,0.27812,-0.053464,0.30363,-0.33409,1.3494,-0.078984,-0.05347,-0.79322,0.048555,-0.38508,-0.58913,-0.18101,0.099528,0.30363,0.32914,-0.35959,0.71176,-0.35953,-0.33405,0.58412,0.32917,-0.002454,0.1251,-0.10452,-0.43608,-0.079014,-0.078996,-0.181,0.099613,0.25257,-0.4871,-0.56365,0.12509,0.86478,0.91583,-0.51263,-0.46161,-0.33406,0.12507,-0.38506,-0.20654,0.22712,0.023029,0.60973,-0.15553,-0.48711,0.12504,-0.25753,-0.13001,0.099564,-0.20653,-0.10448,0.17608,0.40566,-0.10447,-0.28306,0.43118,1.3749,-0.84424,-0.41057,-0.25753,-0.30851,0.12505,0.63523,0.048531,-0.23202,-0.028011,-0.027925,-0.0535,0.17603,-0.25752,0.15062,0.17611,-0.33409,0.30364,0.20158,-0.51262,0.023035,0.023029,0.099564,-0.69118,-0.3851,0.38016,0.7628,-0.69113,-0.35956,0.58417,-0.38508,-0.002485,-0.4106,-0.48709,0.15061,0.96674,0.45667,0.1251,-0.23201,0.15059,-0.51262,-0.43609,-0.33406,0.15057,-0.10449,0.30365,0.15056,0.27814,0.074038,-0.53807,-0.38511,-0.028042,-0.41057,-0.027969,-0.002436,0.2526,0.048555,-0.23203,-0.181,0.074062,-0.053464,0.3291,1.2984,1.2219,-0.99727,-0.81871,-0.35955,-0.69119,-0.69117,1.0688,0.12507,-0.43608,0.17609,0.048543,-0.10447,0.074075,0.15059,0.15056,0.074038,0.048536,-0.002472,-0.12999,-0.053476,0.27812,0.023047,-0.05347,-0.41058,0.99234,0.68624,0.35462,-0.74218,-0.027987,-0.64016,-0.81868,-0.13002,0.43117,-0.38508,0.30363,0.023035,0.20159,0.048543,-0.00243,0.12505,0.5076,0.15062,-0.002454,0.048561,-0.18099,-0.027993,-0.1555,-0.48711,-0.15552,0.35464,0.15056,-0.48709,1.3749,-0.43609,-0.46161,-0.56364,0.38013,-0.027993,0.35467,-0.56366,-0.41058,-0.078996,-0.12998,-0.00243,0.2781,0.45666,-0.002448,-0.10453,0.12507,0.023059,0.074033,-0.05347,-0.20649,-0.18103,0.22707,0.50769,-0.10454,-0.79321,0.32918,-0.46156,-0.41061,0.83929,-0.25753,-0.18105,-0.25752,-0.13001,-0.10451,0.048561,0.074069,0.15059,0.20159,-0.002472,-0.15549,0.68626,0.55871,-0.002448,0.12508,-0.58915,-0.89524,-0.027969,-0.48711,-0.41058,-0.002443,-0.079002,0.074057,0.63523,-0.4361,0.50766,-0.23201,-0.38508,-0.079002,-0.027962,0.023041,0.1506,0.12507,-0.15553,-0.027956,-0.078984,0.43115,-0.232,-0.13002,-0.2065,0.15057,-0.079008,-0.15549,-0.079008,-0.027993,-0.053488,-0.12996,-0.12998,-0.15558,-0.23205,0.63526,2.1402,0.099595,-0.53814,-0.23201,-0.43609,-0.61465,-0.33406,-0.61467,-0.43609,0.68624,0.32911,-0.027962,-0.027974,0.12505,-0.078972,-0.1045,0.25261,0.074069,-0.05347,0.12509,-0.13002,-0.38509,0.22712,0.53319,-0.10452,-0.4871,-0.79324,-0.30855,0.25262,1.1964,0.25262,-0.027974,-0.7422,-0.66567,0.45666,-0.43609,0.55873,-0.078996,0.074057,0.048531,-0.35957,0.17608,0.43115,0.35464,0.25264,-0.053506,-0.33404,-0.51259,-0.18108,0.074062,-0.53809,-0.07899,-0.10452,1.1964,0.25259,-0.81874,-0.10447,-0.64019,-0.15549,0.38014,0.58424,-0.38509,0.71175,0.048531,-0.46159,-0.35957,-0.18102,-0.15549,-0.053451,0.32913,1.5535,-0.23202,0.099564,-0.18105,0.099577,-0.30855,-0.46159,-0.10452,-0.15554,-0.078972,0.20163,-0.33403,0.048561,0.17607,1.1964,-0.94625,-0.3851,0.73725,1.4005,-0.64015,-0.71668,-0.23204,0.53318,-0.53812,-0.46162,-0.53812,-0.002405,1.1453,1.1198,-0.53809,-0.53812,-0.078966,0.38016,-0.30856,-0.30856,-0.027974,0.09954,0.074044,-0.10445,0.15059,0.15059,-0.28307,-0.079021,0.074051,0.50769,0.86478,-0.48711,-0.66561,0.22707,-0.13001,-0.35956,-0.23203,0.32914,-0.18102,-0.23204,0.15061,0.66073,0.15057,-0.38506,0.2526,-0.28305,0.45666,-0.33408,-0.33403,0.38012,0.09954,-0.078977,-0.48709,0.20158,0.074062,-0.002467,-0.51258,0.55867,-0.1811,-0.15549,0.12509,-0.078972,-0.25751,0.023023,0.2016,0.27811,-0.027956,0.022998,-0.46161,0.074062,0.48216,0.58423,-0.41058,-0.41061,-0.38508,0.048561,0.30361,-0.18104,1.4004,-0.41058,-0.38508,-0.002467,-0.25757,-0.053476,-0.33402,-0.13005,1.2473,-0.35954,-0.20653,0.4822,-0.25753,-0.002485,0.73729,-0.30856,-0.12999,-0.41054,-0.23212,-0.46162,-0.25751,0.66072,1.6555,-0.48713,-0.64013,-0.20655,-0.027993,-0.35956,-0.002461,-0.23205,1.2474,0.96685,0.2271,-1.0738,-0.74216,-0.28305,-0.002443,0.09954
-0.23203,0.099559,0.15059,0.023035,-0.002472,-0.078996,-0.053482,-0.10449,-0.002467,0.074062,0.048549,0.17607,-0.053464,0.048543,-0.10448,-0.053495,-0.10449,-0.002479,-0.078972,-0.002479,0.12509,0.099552,0.074062,-0.053495,0.023047,-0.002467,-0.027974,-0.1045,0.023047,0.023035,0.023047,0.09957,0.023047,0.048543,-0.02798,-0.078977,0.048531,-0.027956,-0.25756,0.023047,0.099564,0.15058,0.099583,0.048531,-0.05347,-0.002479,-0.1045,-0.10449,-0.15551,0.023059,0.074044,0.15059,-0.10449,0.12507,-0.15551,-0.078996,-0.15549,0.074038,-0.002454,0.074038,0.074062,0.048549,0.048549,-0.053464,-0.002472,-0.027962,-0.079002,-0.078972,-0.053495,0.09957,0.074057,0.074069,-0.002448,-0.0535,0.023041,-0.07899,0.023041,-0.15551,-0.027956,-0.027974,0.15058,0.023047,0.09957,0.048531,-0.078966,-0.20652,-0.053482,-0.002467,0.023035,-0.078984,-0.053495,0.15059,0.023029,0.023054,0.074038,-0.002454,-0.002467,-0.33405,0.074044,0.074057,0.099559,0.048561,0.099564,-0.053476,0.048531,-0.1555,-0.027993,-0.027962,0.048536,-0.078972,-0.002479,0.15057,0.12507,0.099564,-0.07899,-0.18102,-0.078972,-0.027987,0.048549,-0.002467,0.023029,0.12507,-0.002461,-0.002467,0.074062,-0.13,-0.0535,-0.053488,-0.027987,0.074062,0.12507,0.12506,-0.053458,-0.027993,-0.053482,-0.07899,-0.053495,-0.027962,0.074044,0.074051,-0.02795,0.048536,0.09957,-0.002467,-0.07899,-0.027962,0.074044,-0.078984,-0.18103,0.12508,0.048549,0.12507,-0.078977,0.074038,-0.027969,-0.002491,-0.02798,-0.027969,-0.027993,-0.13,0.074057,0.099583,0.12505,0.048561,-0.053495,-0.10448,-0.079008,-0.053488,-0.027969,-0.053476,0.074062,0.074062,0.023029,-0.002454,0.023023,-0.1045,-0.002467,-0.053488,0.074062,0.099564,0.048536,0.12509,0.17607,-0.027969,0.074044,-0.13002,-0.12999,0.023029,-0.002467,0.023041,0.074062,0.048555,-0.002479,-0.027962,0.023023,-0.078972,-0.23204,-0.002467,-0.027962,0.12505,0.048549,0.12506,0.023059,0.12505,-0.002443,-0.18102,-0.078977,-0.07899,-0.053464,-0.002479,0.074075,0.074044,-0.002443,-0.053495,-0.25753,-0.0535,-0.027956,0.048536,0.023054,0.099546,0.048567,0.15057,-0.027962,0.048525,-0.181,-0.027993,-0.12999,0.048536,-0.079002,-0.002461,0.099559,0.023065,-0.02798,-0.027956,-0.0535,-0.078972,-0.002485,0.023041,-0.002472,-0.05347,0.099564,0.023047,-0.027969,0.074069,0.048536,-0.33405,-0.002467,-0.002467,-0.002467,-0.002472,0.074069,0.023047,-0.078984,0.023059,-0.027987,-0.12999,-0.13,-0.027974,0.048549,-0.13,0.023041,0.15056,0.15059,-0.002485,-0.12999,-0.002485,-0.053458,0.023029,0.074051,-0.053476,0.15058,0.048555,0.048536,-0.078972,0.048525,-0.078972,-0.1045,-0.002461,-0.078984,0.023054,-0.002479,0.099583,0.17607,-0.05347,0.048531,-0.07899,-0.07899,-0.10449,-0.027969,0.048549,0.074057,0.023047,-0.027956,-0.002485,0.048555,-0.079008,-0.053476,-0.053488,-0.002448,0.12507,0.023041,-0.07899,0.099546,0.048549,-0.1045,0.048549,-0.078996,0.074033,-0.10449,0.023041,0.20159,-0.078966,-0.053488,-0.053464,-0.053495,-0.002467,0.023041,0.099546,-0.027962,-0.027987,0.074075,0.099564,-0.002461,0.074057,-0.027974,-0.12999,-0.053495,-0.027962,0.023041,-0.02798,0.074075,0.099546,0.074062,-0.05347,-0.1045,-0.053482,-0.07899,-0.02798,-0.053482,0.074057,0.099552,0.023047,0.15059,0.048555,-0.079014,-0.13,-0.13,0.074038,-0.02795,0.048549,-0.027969,0.099583,0.099546,-0.002472,-0.078977,-0.079008,-0.13001,0.048555,-0.05347,-0.079002,0.17609,0.023059,-0.053476,0.074038,-0.002467,-0.20652,0.12505,-0.181,-0.15551,0.023041,0.099577,0.15056,-0.053464,0.074044,-0.02798,-0.053482,-0.002485,-0.002467,-0.07899,-0.027962,0.023054,0.12505,0.09957,0.023041,-0.027993,-0.053482,-0.10449,0.048531,-0.053458,-0.027974,0.17607,0.15059,-0.10452,-0.078966,-0.02798,-0.15551,-0.078972,0.074038,-0.027969,-0.002448,0.074062,0.048555,-0.18101,0.15056,-0.05347,-0.07899,-0.027969,-0.078984,0.074051,-0.053464,0.20157,0.099583,-0.078984,-0.002461,0.023023,-0.10448,-0.13,-0.078984,0.023035,0.074044,0.074057,0.074062,0.15058,-0.0535,-0.10448,-0.027987,0.023054,-0.002467,0.15058,-0.05347,0.023047,0.074069,-0.0535,-0.002454,0.023041,-0.053495,-0.12999,-0.053482,-0.027974,-0.002454,0.048549,0.074057,-0.053464,0.023023,-0.053482,-0.13,-0.13001,0.074051,-0.078984,0.099559,0.12509,0.023047,-0.33406,0.074062,0.048543,0.023035,-0.027962,-0.002485,0.023035,0.023041,0.099552,0.15059,-0.053482,0.048536,-0.12999,-0.1045,0.048549,-0.10448,-0.002485,0.074057,0.023059,0.099552,-0.027969,-0.078972,-0.027993,-0.002467,-0.027974,-0.078984,-0.078972,-0.053476,0.023023,0.023065,0.048555,-0.002479,-0.053482,-0.10448,-0.1045,-0.053495,0.074057,-0.053464,-0.002467,0.074038,0.023047,0.099552,0.048531,-0.078977,-0.053482,-0.053482,-0.078966,-0.02798,0.074062,0.25262,0.17607,-0.18102,-0.002454,0.023023,-0.18101,-0.027956,-0.002467,0.048543,0.074062,0.048561,-0.053488,0.12507,0.048543,0.023017,-0.15551,-0.053464,-0.027974,0.023035,0.023047,-0.027956,0.099546,0.09957,-0.05347,-0.079008,-0.027969,-0.12999,0.023023,0.09957,-0.027962,0.074044,0.023047,-0.002467,0.099546,-0.002472,-0.1045,-0.002485,0.023047,-0.002467,0.023041,0.099564,0.048549,0.15056,-0.05347,-0.027998,-0.027969,-0.078984,-0.027969,0.023041,0.023035,0.12507,-0.10448,0.099546,-0.05347,-0.0535,-0.002467,-0.053482,-0.002461,0.12508,-0.002461,-0.10448,0.048531,0.074057,-0.1045,-0.053488,-0.10449,0.023035,-0.027969,0.023023,0.023054,0.023041,-0.002467,-0.10448,0.023029,-0.13,-0.078984,0.048549,-0.027987,0.023054,0.023047,0.074062,0.023041,-0.002461,-0.078984,0.023023,-0.053482,0.023023,-0.078977,0.074044,0.099577,0.09957,0.074057,-0.1045,-0.002472,-0.13001,-0.10449,-0.027969,-0.053476,-0.053464,0.17607,0.1506,0.099546,-0.20652,-0.027987,-0.1045,-0.078984,0.074033,0.17609,-0.078984,0.074033,0.45669,-0.41059,-0.61465,-0.23202,0.73724,0.35464,-0.02798,0.30361,-0.69115,0.048555,0.38016,-0.46161,-0.74221,-0.25753,-0.18104,0.48218,1.5025,0.30366,-0.23205,-0.48711,-0.8442,-0.46159,-1.0738,0.58417,2.5738,0.22715,1.5025,-1.3289,-2.2471,-0.30856,0.91578,1.6555,0.73726,-1.9921,-0.5381,-1.1504,-0.89524,-0.58915,-0.13004,0.20165,0.43121,0.83927,1.8596,0.15059,-0.13002,0.91582,1.1199,1.0688,-0.20657,-0.53814,-0.92074,-0.99721,-0.76769,-0.66565,-0.28305,0.074038,0.22711,-0.25753,-0.58901,0.22715,1.9103,1.1707,0.27813,-0.10439,-0.23198,-0.51254,-0.71665,-0.53812,0.60976,0.25263,0.048512,0.12509,-0.30858,-0.25757,-0.13003,-0.15557,-0.10449,-0.25746,-0.027969,0.60963,0.53312,-0.027931,-0.28294,-0.12996,0.023078,-0.12996,-0.35959,-0.4871,0.3291,0.32912,-0.02798,0.023017,1.528,-0.41058,-0.66567,-0.99723,1.2474,0.48216,1.0178,-1.2523,-0.79323,0.17608,-0.38508,-0.53817,0.074093,0.023072,0.66072,0.30363,0.20156,0.15061,0.27812,-0.58915,0.023047,0.96681,0.048543,-0.38508,-0.23205,-0.20652,0.22711,1.1964,-0.3851,-0.4616,-0.35958,0.074051,-0.20652,-0.18103,-0.13,0.15057,0.12509,0.25263,-0.02798,0.43113,0.17606,-0.74214,-0.25752,-0.18103,0.38014,0.30364,1.7831,-0.28303,-1.3544,-0.30857,-0.1045,-0.46161,0.17607,0.023084,-0.23204,1.0433,-0.33405,-0.56359,-0.053464,0.15057,0.3036,-0.18104,-0.33409,1.0179,0.099559,-0.053458,-0.078984,0.12508,-0.053482,0.023047,-0.35955,-0.43612,-0.23202,0.074057,0.074057,0.40566,-0.41059,-0.33406,0.30361,0.83931,0.074033,-0.23203,-0.002472,0.023023,-0.71665,-0.56364,0.15057,0.25262,1.0688,0.38016,-0.15553,-0.38509,-0.38508,-0.28305,-0.027962,0.074062,0.074044,-0.10448,0.20161,0.50766,0.63518,-0.30851,-1.2268,0.99234,-0.23203,0.68624,-0.43609,0.25262,-0.23205,-0.61465,-0.4361,0.48218,0.30364,-0.28306,-0.38508,0.17607,0.25261,-0.002472,0.12505,0.50769,0.15059,-0.002472,-0.23202,-0.027998,-0.02795,-0.18101,0.15055,0.074075,-0.10448,-0.002461,-0.10449,0.81373,-0.078984,-0.20653,-0.41057,-0.46162,-0.053513,0.099583,0.09957,0.048555,0.023047,0.40564,-0.053476,-0.078972,0.30361,0.048555,-0.15551,-0.64017,0.25261,-0.053476,0.074051,0.68625,0.76275,-0.33407,-0.79318,-0.53812,-0.30857,0.2016,0.099546,-0.28306,0.023041,0.40564,0.60972,-0.28305,-0.027993,0.73726,0.55871,0.099564,-0.7677,-0.23203,-0.13002,-0.079002,0.023047,-0.15549,-0.15553,0.17609,0.58421,0.12505,-0.23203,0.074051,-0.053495,0.099588,0.048536,0.48211,-0.30855,-0.53813,0.074069,0.023072,-0.25756,-0.3596,0.32914,1.1199,0.20162,-0.56364,-0.3851,0.2271,-0.078966,0.12506,1.0434,-0.23202,-0.56363,-0.66566,-0.23203,-0.027987,-0.28307,-0.28306,0.58423,0.86478,1.1709,-0.5126,0.17611,-0.43612,-0.35956,-0.53812,-0.35959,0.15059,-0.28303,0.25259,0.40566,-0.027962,-0.53814,-0.078996,0.35464,0.12507,0.17605,0.099583,0.074051,0.20158,-0.078984,-0.053464,0.2526,-0.027998,-0.20653,0.023059,-0.58912,-0.56366,0.38016,-0.15552,-0.027993,0.15059,0.58422,-0.053506,-0.30856,-0.38506,0.099528,-0.51267,0.53323,0.78829,0.78827,0.074062,0.83931,0.40566,-0.74221,-0.18103,-0.56363,-0.79322,-0.43612,-0.23203,0.32917,-0.10452,0.60971,-0.28306,0.27811,1.1199,-0.12999,-0.027962,-0.028005,-0.30857,0.68622,-0.10448,0.099595,0.048543,-0.027993,-0.20653,-0.027993,-0.078972,0.048549,0.099546,-0.027969,0.15059,0.22711,-0.4361,-0.15551,-0.1045,0.50769,0.2271,-0.35956,-0.38507,-0.10452,0.023029,0.45668,0.048531,-0.64015,-0.43608,0.78829,0.60972,-0.6146,0.09951,0.4566,0.40569,-0.10447,-0.38507,-0.74218,-0.4871,0.35464,0.15059,-0.30856,-0.1045,0.09954,0.074069,-0.10452,0.15059,-0.027974,0.32913,-0.15551,-0.10449,-0.20652,-0.13,0.68624,0.8648,-0.20653,-0.07899,-0.58916,-0.7167,-0.48709,0.22712,-0.23203,0.074033,0.38013,0.53319,0.76277,0.17609,-0.35959,-0.35958,0.17609,-0.43608,-0.48706,-0.18105,0.074038,0.25261,0.25259,0.15059,-0.0535,-0.10447,0.048543,0.17614,0.71173,0.58416,-0.002467,-0.81871,-0.79319,-0.232,0.023041,-0.20653,0.023047,1.2984,0.45666,-0.53811,-0.43612,2.0126,-0.66565,-0.69119,-0.66566,-0.1555,-0.13001,-0.002467,0.048567,-0.002461,0.99232,0.1506,0.023041,-0.13002,-0.25754,-0.002461,0.50769,-0.28306,-0.28306,-0.027938,-0.002472,-0.28307,1.0433,0.66072,-0.13004,-0.46159,-0.48713,-0.41056,-0.23202,-0.13001,0.2271,0.2271,0.71176,-0.002461,-0.18103,-0.41058,-0.28301,-0.43609,0.32913,0.53317,0.60968,0.40568,-0.38509,0.5332,-1.0993,-0.25757,0.55872,-0.053464,0.022974,-0.078972,-0.10449,-0.23202,0.023065,-0.002485,0.30362,1.2474,-0.61465,-0.46159,-0.69116,0.73723,-0.15553,0.83928,-0.35959,-0.51262,0.48219,-0.25754,-0.35958,-0.25753,-0.20651,0.12507,0.2526,0.074075,0.30362,0.048536,0.04858,-0.18101,-0.18103,0.38016,-0.28306,-0.74218,-0.181,1.1454,0.22708,-0.18101,-0.13002,-0.25756,-0.078984,-0.18103,-0.10447,-0.28303,0.48215,0.15056,0.76275,0.73726,-0.79317,-1.0228,-0.23207,0.27813,-0.23202,-0.002491,0.27806,-0.181,0.30365,0.074051,-0.35957,-0.15551,0.43116,0.38016,0.12506,-0.027944,0.38012,-0.13004,-0.053495,0.58422,-0.1045,-0.41059,-0.46161,-0.23205,-0.002461,0.45667,0.20157,0.12509,-0.33406,-0.46162,0.12507,1.1454,-0.7932,-0.15553,-0.56364,0.83929,1.528,-0.51262,-0.079021,-0.46162,-0.20653,-0.079008,-0.23202,-0.4616,0.35464,0.53321,0.35462,0.099546,0.048531,-0.18102,0.17611,0.12507,-0.28305,-0.33405,-0.15551,0.4822,0.30363,-0.002534,-0.078984,-0.25752,-0.35958,-0.002436,-0.078984,-0.38508,0.099552,0.099559,0.91586,0.86475,-0.61465,-0.46162,0.15059,-0.35959,-0.81869,0.71173,-0.23202,-0.078977,0.30363,0.048561,0.2271,0.17609,-0.18102,-0.002472,-0.20653,0.023041,0.023059,0.78828,-0.25753,-0.25756,-0.51262,-0.28308,0.30364,0.99232,0.099577,-0.30858,-0.027956,-0.74219,-0.30856,0.38014,0.023035,-0.027956,-0.12999,-0.002467,-0.053451,0.20158,0.12505,0.099583,0.074051,-0.10449,0.048536,0.60974,-0.28306,0.30362,0.15056,-0.46157,-0.33409,-0.38507,-0.53812,0.35461,-0.33406,0.27809,-0.18104,-0.35956,0.22713,0.43116,1.1964,-0.079008,0.22712,-0.23206,-0.33407,-0.18103,-0.027974,-0.053495,-0.23203,-0.078972,0.023023,0.12509,0.25258,0.38014,-0.28305,-0.23204,0.023059,1.579,-0.2575,-1.3289,0.73724,-0.51259,-0.56366,-0.23203,0.3036,0.4822,-0.4106,-0.20653,0.22712,-0.002472,0.1761,-0.23204,-0.18102,0.66072,0.48219,0.023023,-0.4361,-0.51262,-0.25755,-0.35957,0.48218,-0.07899,0.38014,0.2271,-0.053495,0.023054,0.15057,-0.28303,-0.10451,0.15059,0.22708,-0.23203,-0.69115,-0.053397,0.073984,0.48213,-0.33407,0.27812,0.68626,-0.23201,-0.053488,-0.10449,-0.18102,0.17607,-0.053488,-0.35959,-0.3851,0.074075,0.35463,1.1454,0.73727,-0.56362,-0.33405,-0.53817,0.35463,-0.10449,-0.58913,-0.61465,0.48219,0.43113,-0.053458,0.22708,0.023047,0.58421,0.048561,-0.51263,-0.46158,-0.18103,0.73726,0.023054,0.023035,-0.64014,-0.15554,-0.20651,0.25259,-0.28304,-0.13002,0.63524,-0.13001,-0.46157,0.45665,-0.33406,-0.58918,0.83929,0.22712,0.78824,0.048585,-0.66565,0.12501,-0.79323,0.17613,0.55869,1.0433,-0.53812,-0.79317,-0.51264,-0.30856,0.17604,0.12507,0.22713,-0.002461,0.22712,0.27809,0.2526,0.09957,-0.20653,0.023035,-0.053488,0.17612,-0.20653,0.048555,0.074057,-0.18101,0.023029,0.83928,-0.25753,-0.89526,-0.28304,0.71176,1.0689,-0.1555,-0.25756,-0.43607,0.43114,-0.51264,0.074062,-0.25755,-0.20653,-0.20651,-0.12999,0.73725,0.43117,0.35462,-0.23201,-0.13,0.40562,-0.10451,-0.58911,-0.4106,0.099564,0.43118,0.68624,-0.66564,-0.56362,-0.079014,-0.38509,-0.28307,0.8903,-0.20655,-0.15549,-0.3851,0.30363,0.91582,0.60971,-0.30855,-0.56365,-0.23202,-0.30856,-0.28306,0.12507,-0.33407,-0.28304,0.48219,0.71174,0.32915,-0.002491,-0.002467,-0.46159,-0.28308,0.45667,-0.1045,0.15057,0.45672,0.30364,-0.74221,-0.25754,-0.15553,0.50772,0.048536,-0.078996,-0.38506,-0.027987,-0.58912,-0.1045,0.099552,1.375,0.22707,-0.2831,-0.41056,-0.4616,-0.078984,0.12509,0.074038,-0.078977,-0.027969,0.15057,0.048531,-0.23205,0.30364,0.2271,-0.18103,0.048555,0.53318,0.023041,-0.56365,-0.28305,0.27812,-0.38505,-0.48713,0.45669,-0.56364,0.60972,-0.15551,-0.25756,-0.33405,0.91581,0.63522,-0.33407,-0.76772,0.30364,0.12506,-0.28301,-0.002472,-0.10449,-0.20652,0.099534,0.40566,0.5332,0.55873,-0.64015,-0.7422,0.074038,0.099577,0.12506,-0.18101,0.074044,-0.20653,-0.35957,-0.23205,0.048561,0.023047,-0.027974,0.94134,-0.10448,0.12501,0.099503,-0.15547,-0.30852,-0.053482,-0.053464,-0.053476,0.20158,0.048531,0.4312,0.12506,0.30364,-0.35957,-0.23203,-0.66568,-0.43612,-0.15549,0.8648,0.99235,-0.13002,-0.053482,-0.76772,0.55871,0.38017,-1.0228,-0.53811,-0.23205,0.45668,0.50768,-0.13001,-0.12999,-0.078996,-0.027969,0.023023,0.074057,0.66073,0.15059,-0.15551,-0.30857,-0.13001,0.12505,0.73729,0.94133,-0.66566,-0.53815,-0.35957,-0.43612,0.40567,-0.30852,-0.002497,0.074002,0.50771,-0.23202,0.35464,-0.23203,-0.30854,-0.15552,0.5842,0.22708,-0.10447,-0.15548,-0.053506,-0.18101,0.35461,-0.10449,-0.15553,-0.053464,0.20158,-0.18102,-0.61466,0.27814,0.7628,0.12504,-0.69116,-0.07899,-0.35957,-0.38506,-0.02798,-0.10451,0.45668,-0.20653,0.68623,0.048543,-0.28305,0.60973,-0.15553,-0.81871,-0.64014,0.40566,-0.18098,-0.10453,0.27811,0.099564,0.20161,0.099552,-0.41058,-0.38507,0.4567,0.0485,0.099534,0.50774,0.30363,-0.41062,-0.4616,-0.28305,0.43117,-0.25754,0.30363,0.22711,-0.23204,-0.15552,-0.33405,0.32912,-0.35959,-0.46158,0.20159,-0.079026,0.43116,0.55868,0.99232,-0.053476,-1.0993,0.023023,-0.33407,-0.002436,0.55869,-0.13001,-0.28303,0.048573,-0.4361,-0.25751,-0.33409,0.99231,0.17607,-0.3851,-0.41058,-0.15552,0.1251,0.22708,-0.027974,0.048604,0.25257,0.35456,0.02309,-0.28302,-0.33407,-0.28303,0.023047,-0.078984,-0.10449,0.12507,0.048536,0.023054,0.074062,0.048518,0.15057,0.099546,-0.078947,0.074044,-0.002479,0.048543,-0.10452,0.074069,0.25262,-0.35959,-0.33405,0.71174,-0.30851,0.48219,0.63522,-0.48712,-0.35961,-0.51258,-0.79324,0.023041,0.35465,-0.05347,-0.002467,0.12507,0.12508,0.15059,-0.002461,0.023041,0.074062,0.15055,-0.33404,0.5587,-0.28305,-0.20654,0.63524,-0.38508,-0.5126,-0.35964,0.6097,-0.20649,0.12508,-0.35954,-0.35959,-0.30856,0.76275,-0.13001,0.023047,0.048549,-0.053519,-0.46159,0.22711,1.1964,0.15057,-0.41061,0.45667,-0.33407,-0.28307,-0.25753,-0.002485,-0.35956,-0.07899,0.17609,0.78825,0.1506,0.074062,-0.25754,-0.38508,0.58419,-0.027938,-0.69117,-0.20656,-0.33405,-0.23204,0.38016,0.38015,0.5332,-0.79321,0.048536,0.32915,0.38014,-0.18101,-0.28306,-0.02798,-0.10449,-0.07899,-0.23203,-0.079008,0.58422,0.17607,0.023017,-0.12999,-0.30852,0.12507,-0.30858,0.074087,0.9413,0.66065,-0.002479,-0.74214,-0.30855,-0.69116,-0.15553,-0.25753,0.023029,0.20159,0.63523,0.25263,-0.38507,-0.0535,0.20161,0.3036,-0.1045,-0.20652,0.43118,-0.20651,-0.13001,-0.30858,-0.33406,-0.053482,0.20161,0.12509,0.27811,-0.28304,0.96681,-0.33408,-0.079002,-0.02798,0.048555,-0.58914,-0.28307,-0.002467,0.099559,0.25265,-0.30855,-0.181,-0.13002,0.048549,-0.12999,0.5587,-0.002467,0.27813,0.17609,-0.12999,-0.4871,-0.46161,0.35464,-0.2065,-0.20653,-0.13002,0.22712,0.074038,0.22711,-0.25753,-0.23205,-0.079002,-0.15551,0.023029,0.60971,-0.41057,-0.23201,1.375,-0.23209,-0.23205,-0.20654,-0.35955,0.074062,0.32918,-0.028042,-0.33409,-1.1248,0.17612,0.94132,0.91583,-0.28306,-0.35959,-0.46157,-0.25756,-0.10451,-0.181,0.15056,0.40567,0.17606,0.048536,-0.53811,1.1709,0.2526,-0.28302,-0.4106,0.22709,0.32914,-0.53814,-0.38508,-0.30855,0.09954,0.40568,-0.43609,-0.30857,0.48219,0.45667,-0.13002,-0.12999,0.048555,1.0689,-0.61463,-0.53814,0.15057,0.5332,-0.4106,-0.10449,-0.30855,-0.079008,0.2016,0.58423,-0.35958,-0.41059,-0.002472,0.43118,0.55869,0.099588,-0.28306,-0.74218,0.1251,-0.028005,0.12507,-0.02798,-0.43611,-0.53811,0.94133,0.63521,0.58424,-0.30856,-0.61465,-0.30855,-0.20655,0.074038,0.12507,0.048549,-0.30855,0.27812,0.099559,-0.002491,-0.002454,0.32913,0.25263,0.074051,-0.25756,-0.4106,0.074051,-0.25754,-0.10449,-0.56361,0.60969,0.43118,1.0433,-0.66566,-0.4616,-0.053495,-0.74217,-0.69117,0.32915,0.96683,-0.23205,-0.23201,0.2781,-0.18103,0.048549,-0.07899,0.60973,-0.3596,0.86478,-0.027944,-0.38509,0.12509,-0.15549,-0.28306,-0.30855,-0.10453,0.68622,1.0434,-0.4361,-0.53811,0.099564,0.023041,-0.23201,-0.41058,-0.0535,-0.1555,0.30361,0.91581,0.68626,-0.51262,-0.81871,-0.027962,-0.078972,-0.15549,-0.23203,0.17607,0.074062,-0.38505,0.048506,0.40561,-0.078959,0.074075,-0.078972,0.074051,0.25261,0.023059,-0.69115,0.27811,-0.61465,0.27812,-0.33409,0.66073,0.099564,0.023047,-0.4616,-0.33406,-0.25754,-0.13,0.32913,0.023029,-0.12998,0.27811,-0.18101,0.5842,0.17609,-0.079002,0.09957,-0.18103,-0.181,-0.053495,-0.51261,-0.41061,0.66074,0.73725,0.38015,-0.53811,-0.76768,-0.33409,-0.3851,-0.25754,-0.078977,0.32915,0.12506,0.074087,0.20158,0.12508,0.76275,-0.10447,0.07402,0.12507,0.048549,-0.30855,-0.69114,0.22707,-0.028023,-0.12996,0.43121,0.023065,-0.028023,0.12508,-0.33409,-0.53811,-0.10451,0.099583,0.17606,0.20161,-0.18103,-0.28306,-0.027974,-0.12998,-0.053488,0.048555,-0.15549,0.023029,-0.13001,-0.15553,0.22713,0.99233,-0.38508,-0.86971,-0.92073,0.2271,1.0178,0.8648,-0.23202,-0.46162,-0.86972,-0.28303,-0.38509,-0.027993,0.074062,0.15059,0.048555,0.2526,0.048549,0.15059,-0.053446,0.074038,-0.053464,0.15056,-0.10447,-0.18105,0.35464,0.2271,-0.002472,0.25262,0.45666,-0.35956,-0.92069,-0.46165,0.60967,-0.69116,-0.232,0.32918,0.30363,0.89027,-0.43609,-0.13,-0.181,-0.35959,0.048543,-0.23202,1.3749,0.40567,-0.3851,-0.41059,-0.15553,-0.13,-0.25754,-0.053476,-0.053458,0.12507,0.17608,-0.027998,-0.12999,0.86477,-0.41056,-0.30858,-0.20653,-0.002461,0.45668,-0.53811,0.78832,-0.002516,0.12507,-0.15553,-0.53812,-0.15551,-0.64015,-0.64016,0.2271,0.63525,0.32913,0.12507,-0.181,-0.10453,0.30364,0.15059,0.12508,0.22707,0.048536,-0.25754,-0.002461,0.023041,-0.13,-0.053464,-0.20655,0.20161,0.12507,-0.74218,-0.33403,0.2781,0.17603,-0.20649,-0.002461,-0.48711,-0.027974,-0.12998,0.71173,1.1454,0.17606,-0.71665,-0.66567,0.71176,-0.41062,-0.58914,-0.18101,-0.35956,-0.18102,0.023047,0.2526,0.27811,0.22711,0.20161,0.12505,-0.23203,0.20159,-0.053476,-0.002454,-0.35957,0.30363,-0.13002,-0.38508,-0.078996,0.22708,-0.28303,-0.25755,-0.23205,-0.35956,0.38016,0.17607,-0.43609,-0.23203,1.7831,0.35465,-0.53813,-0.18104,-0.25755,-0.28304,-0.35957,0.023035,0.09957,0.27812,0.15057,0.074038,0.048549,-0.027987,0.20161,0.4312,-0.15551,-0.89522,-0.027993,0.83928,0.1506,-0.027974,-0.20652,-0.28306,0.048531,-0.46159,-0.181,0.099564,0.099577,0.074051,0.30361,0.023054,-0.15551,-0.13002,0.27814,-0.13,-0.078996,-0.078972,-0.28307,-0.15551,0.86481,0.074033,0.9158,-0.10449,-0.74221,-0.74219,-0.13,-0.1045,0.074057,0.22712,-0.13002,-0.28306,-0.28303,0.25262,1.0178,0.048555,0.5587,0.2016,-0.28306,-0.89524,-0.53811,-0.33409,-0.12999,-0.28304,-0.20653,-0.053482,0.73725,-0.15549,0.58417,0.81378,-0.078977,-0.4361,-0.41058,-0.28306,-0.35954,-0.13,-0.027993,-0.13,0.76277,0.22711,-0.10446,-0.3341,-0.02798,0.099546,-0.053513,-0.12999,-0.1045,0.074051,-0.23203,-0.4616,1.2474,1.0944,0.04858,-0.74219,-0.43608,-0.4106,-0.25754,-0.35956,-0.20654,0.99234,0.35463,-0.10452,0.20161,0.2526,-1.0993,-0.64015,0.40567,1.1454,0.023035,-0.41059,0.099564,-0.28305,0.023041,-0.71668,0.40565,0.099583,-0.027969,-0.027944,0.2781,0.023041,0.35464,-0.35958,0.68626,0.074057,-0.002479,0.15059,-0.38509,-0.7422,-0.38508,-0.10449,0.45666,-0.23204,-0.1045,-0.1045,0.35465,-0.18103,0.35465,0.09957,0.22709,0.023054,-0.027993,-0.25753,-0.25754,0.6352,-0.61464,0.45666,-0.002443,0.91579,-0.61463,-0.43609,-0.078984,0.20157,-0.027956,0.17606,-0.23203,-1.0483,-0.002461,0.53319,1.5025,0.48219,0.58422,-0.92074,-0.3851,-0.84422,-0.41061,0.35466,0.20158,0.71176,0.023047,-0.30858,0.35464,-0.20652,-0.027993,-0.43608,-0.25754,0.20161,0.63521,0.22711,-0.027987,-0.078953,-0.053506,-0.18101,-0.25757,-0.48708,0.20158,0.25263,-0.28305,0.2016,0.074051,0.2526,-0.10449,-0.053476,0.78828,-0.76768,0.48216,-0.64017,-0.38508,-0.35957,0.50771,0.43114,0.45667,-0.33406,-0.3851,-0.10449,0.09957,0.53318,-0.13,-0.027962,0.38013,-0.002461,0.17607,-0.41058,-0.13002,0.30363,-0.33405,-0.30856,-0.053488,0.40567,-0.053495,0.5587,-0.15551,-0.33409,-0.10447,-0.41056,-0.18101,-0.30855,0.023017,0.22715,0.099552,1.0433,-0.53811,-0.84424,-0.25754,0.6097,0.5332,0.20161,-0.86974,-0.61463,0.48218,-0.053476,-0.8187,0.20159,-0.027962,0.71173,0.12509,-0.18103,0.48219,-0.10449,-0.1555,-0.002472,-0.23202,-0.18103,-0.20652,0.15056,0.04858,-0.15552,0.35464,-0.20651,-0.30858,0.30364,-0.10448,-0.30855,-0.053482,-0.41059,-0.53811,1.2474,0.99235,0.3291,-0.86972,0.20159,-0.2065,-0.10451,-0.43609,-0.30856,0.5587,0.86483,-0.33408,-0.38507,0.17608,-0.053446,-0.15553,-0.10449,-0.23204,-0.53812,-0.48711,0.12505,-0.07899,2.1147
