-0.25753,0.099564,-0.002472,-0.20651,-0.28305,0.71175,0.71176,-0.3851,-0.25755,-0.33406,-0.15553,0.27815,-0.12999,-0.23204,0.023054,0.023047,-0.10449,0.20161,-0.10452,-0.38508,0.81378,-0.002479,-0.027969,-0.079008,0.023035,-0.027962,-0.18101,-0.079002,-0.027956,0.09957,0.074051,-0.078977,0.04858,0.099546,0.023059,0.099564,-0.20653,-0.053482,-0.002491,-0.13,-0.23203,-0.13001,1.5025,-0.15552,-0.28303,-0.13001,-0.15551,-0.027962,-0.15551,-0.25754,-0.13,-0.02798,0.30364,0.023054,0.32914,1.4005,-0.69119,0.2271,-0.053482,-0.46161,-0.4361,-0.23204,-0.181,0.074044,0.17609,0.17609,0.023047,0.12509,0.099546,-0.20652,0.50769,-0.002467,-0.053482,0.048543,-0.027962,-0.20652,-0.10452,-0.10449,-0.15553,-0.13,0.023041,0.12507,-0.027956,0.074038,-0.23204,0.5332,0.074038,0.023035,0.048555,-0.28306,-0.28306,-0.002467,-0.078972,0.12507,0.17607,0.20159,-0.25753,-0.30856,0.074051,0.074062,-0.25754,-0.25754,0.9413,1.0179,0.023041,-0.18103,-0.078996,-0.71667,-0.43609,-0.3851,-0.18102,0.099564,0.25259,0.2016,0.17609,0.25259,0.12507,0.09957,0.30361,-0.12999,-0.30859,-0.002472,-0.33407,0.99235,-0.053476,-0.23205,-0.33405,-0.10451,-0.28306,-0.1555,0.12505,0.048555,-0.078977,-0.07899,0.53321,-0.41061,1.4515,-0.30854,-0.28308,-0.35956,-0.20653,-0.002467,-0.02798,0.17607,0.12509,0.17607,0.023047,-0.002461,-0.10449,-0.30855,-0.23205,0.17608,1.0944,-0.23203,-0.15549,-0.053495,-0.28304,-0.25755,-0.13002,-0.078972,0.83929,-0.25754,-0.002461,0.30362,-0.10452,-0.25753,-0.23204,0.30364,0.32913,-0.28305,-0.28304,-0.053476,0.048543,-0.002461,-0.027974,0.17606,-0.25755,1.1454,-0.48711,0.68623,-0.53811,-0.18101,-0.20653,0.023059,-0.027987,0.074051,0.074057,-0.079002,-0.181,0.048536,-0.053458,0.27811,0.074075,0.048549,0.099564,-0.053488,-0.18101,-0.13002,-0.33408,0.50769,0.17609,-0.18101,-0.02798,0.17607,-0.4871,-0.20652,0.60972,0.5077,-0.18103,-0.25753,-0.38508,-0.25754,-0.20651,-0.1045,-0.13,0.76277,0.074044,0.63524,-0.23204,-0.35957,-0.33405,-0.12999,0.074057,0.12505,0.25261,-0.078977,-0.20653,-0.13002,-0.23204,0.32915,0.22711,-0.28306,0.32914,-0.18101,0.048536,-0.23202,-0.0535,0.12509,-0.23203,-0.18102,-0.10447,0.099546,0.048549,0.12508,0.25259,0.074062,-0.002472,-0.027993,-0.07899,-0.05347,-0.02798,-0.002467,-0.027956,0.074051,-0.027987,0.58421,-0.46159,0.58422,-0.41058,0.048536,-0.18103,-0.078966,-0.20653,-0.18101,0.074038,-0.027969,-0.053464,-0.13001,0.099552,0.63523,-0.02798,0.023029,-0.1555,-0.02798,0.17611,-0.079002,-0.18101,-0.33406,0.78827,-0.1555,-0.15553,-0.20652,-0.053488,-0.027974,-0.027962,-0.027987,0.099564,0.074051,-0.20652,-0.027987,-0.053476,0.099552,0.15059,-0.027956,0.12505,-0.002448,0.074038,-0.0535,-0.027969,0.023035,-0.078996,-0.027969,-0.027956,-0.07899,-0.078996,0.023023,0.023035,-0.053464,-0.30854,0.12507,-0.25755,0.5587,-0.15549,0.074075,-0.35959,-0.15553,-0.10448,-0.20653,-0.15553,0.30362,0.40568,-0.02798,0.25262,-0.053488,-0.12999,0.023029,-0.20653,-0.05347,-0.002448,0.074062,-0.053495,0.023041,-0.30854,0.89031,0.023029,-0.181,-0.30855,-0.13001,-0.15553,-0.13002,-0.13,0.2526,0.15059,0.074057,0.22709,0.15058,0.048573,-0.28305,0.15057,0.099583,-0.18101,-0.13002,-0.15553,-0.4106,0.023054,0.96683,-0.35959,-0.79318,0.074051,0.89029,-0.33407,-0.61463,-0.38508,0.6097,-0.053464,-0.078996,0.43115,-0.1045,-0.078977,-0.078984,-0.002479,0.12508,0.048561,-0.002461,0.023035,-0.027974,-0.15549,0.023041,-0.18102,-0.079002,-0.05347,0.12509,0.60973,-0.1045,-0.23203,-0.38506,0.074038,0.20159,-0.078972,-0.15552,-0.53814,1.7066,-0.33406,0.5332,-0.30858,-0.4106,-0.23203,-0.002454,0.048549,-0.0535,-0.1045,-0.1555,0.074062,0.71173,0.58423,-0.25753,-0.25755,-0.15553,-0.56363,-0.5126,0.2526,0.83928,-0.20652,0.27812,-0.35957,-0.1555,-0.20653,-0.28306,-0.23202,0.074051,-0.18103,1.1454,0.22711,-0.079014,-0.15551,-0.23202,-0.078984,-0.13,-0.079008,0.023047,0.17607,0.023041,-0.053464,0.48216,0.023041,-0.13,-0.23205,0.15059,0.53319,-0.51264,-0.28305,0.1506,0.074044,-0.46161,0.2526,0.048561,-0.027974,0.023023,-0.30858,0.35464,-0.35956,-0.4616,0.27812,0.71176,-0.33405,2.8289,0.074044,-1.2013,-1.1248,-0.99727,0.43115,-0.28305,0.023054,-0.053476,0.22708,0.1761,0.099588,0.22708,0.074057,0.20159,0.09957,0.12507,-0.43609,-0.30854,1.0944,0.30361,-0.53812,-0.51262,-0.30858,-0.07899,-0.33407,0.50768,-0.07899,0.074044,0.023029,-0.05347,0.023035,0.099546,0.048549,-0.053488,0.023017,0.023054,-0.25754,1.0944,0.099564,0.17608,-0.71668,1.0688,-0.41061,-0.66567,-0.84423,0.76277,-0.23204,0.12505,0.63522,0.099564,-0.13002,-0.18101,-0.20653,-0.079008,-0.15549,0.17609,0.35465,0.22712,0.25258,-0.30856,-0.15552,0.099552,0.22713,0.023023,0.27813,0.35465,-0.41058,-0.33405,-0.13002,-0.15551,-0.02798,-0.002485,-0.002461,0.074062,0.074038,0.15059,0.17608,0.15056,0.074062,0.023054,-0.027993,-0.02798,-0.15552,0.09954,-0.20652,0.25263,-1.0483,1.528,-0.13,-0.51264,-0.51261,-0.33406,-0.33407,-0.33405,0.20159,0.73724,0.15057,0.099559,0.32915,0.17608,-0.0535,-0.12999,-0.053482,0.074044,-0.002454,0.048549,-0.02798,-0.027962,-0.15551,0.27812,0.20161,-0.15552,-0.33404,-0.079002,-0.079002,-0.053488,-0.002467,0.30364,0.48216,-0.28303,-0.13002,-0.25753,-0.13,-0.07899,-0.002448,0.099552,0.099577,-0.002467,0.09954,-0.078972,0.20158,-0.027969,0.15059,0.32913,-0.61465,-0.51262,0.86478,-0.23202,-0.18102,-0.18102,-0.053482,0.048536,-0.15551,0.023047,-0.027969,0.17609,0.78829,-0.002467,-0.078977,-0.20652,-0.15552,-0.0535,-0.20652,-0.002467,0.12507,-0.027987,-0.027974,-0.23203,0.35464,0.35465,-0.079008,-0.07899,-0.2065,-0.28305,-0.027974,0.074069,0.023035,-0.002467,0.023059,-0.027962,-0.002479,0.12507,0.048543,-0.10452,0.023041,0.099559,0.15056,0.048549,-0.002454,-0.027974,-0.13002,-0.12999,-0.002461,0.023029,-0.078972,0.099559,0.023041,0.12507,0.15056,-0.002461,-0.053476,0.023017,-0.027962,-0.07899,0.023035,0.048543,0.048543,-0.002443,0.15054,0.12506,0.099528,-0.181,-0.002461,-0.078996,-0.002454,-0.2065,-0.35957,-0.053495,0.55872,0.66074,-1.0483,2.6503,-0.46164,-0.9718,-1.0993,-0.92075,0.66075,0.99235,-0.71667,-0.7422,0.78828,1.426,-0.53815,-1.2778,-2.0175,0.048536,2.1147,8.5171,-2.8593,-2.1196,-3.1399,1.0434,0.86485,-0.30852,-1.6859,-1.3033,-1.0992,-0.81882,1.2983,1.1199,-1.0483,-2.7063,6.8338,1.9869,-0.079197,-3.9305,-1.4564,0.91548,6.7572,0.99267,3.0075,-2.7829,-3.5991,-2.4766,-0.53812,-1.6607,-0.89532,0.53329,-0.18117,4.002,-0.35952,-0.078812,-0.002363,-4.1601,-2.2982,10.43,3.3135,0.2526,-0.84402,-2.3747,-3.14,-2.3747,-2.3237,-1.1248,-1.1248,-2.4,-3.2673,9.0017,1.0687,1.8085,-2.1451,3.2626,6.6806,-3.2675,-4.5174,-3.2164,-1.0228,-0.74223,-1.2779,-0.71666,-3.1655,2.0126,1.5789,-3.3693,7.548,0.43112,-0.33406,-0.35955,-1.1503,-0.9207,-0.48728,-0.69122,-0.94619,-0.7166,-1.3799,1.0434,-1.5584,11.221,-0.41063,-3.395,0.81376,-1.5329,-1.6094,-2.7573,-5.3846,-1.2268,4.4104,9.0273,-1.686,3.4921,-1.5585,-3.242,-3.1909,0.25262,1.63,-1.0992,4.0023,-1.3544,-2.3747,-0.97177,-0.66562,-0.61463,-0.51267,0.27804,-2.7828,-0.81868,8.0834,2.4974,0.83937,-1.6094,-1.7115,0.83926,-1.5839,-2.7828,1.0433,0.81375,-1.1758,3.1602,-0.64001,-2.8082,2.727,2.4208,-1.1249,-5.2826,3.5176,3.7982,-2.0686,-0.30858,-4.4153,8.109,-1.4819,-2.2981,-2.1451,-1.4819,-1.2269,-0.86969,1.324,7.3947,4.1043,0.32913,-2.0686,-2.0176,-1.8901,-1.1249,0.45674,-0.079057,-4.1347,2.3442,5.5326,-0.58913,-1.7114,-1.9665,-1.7625,-1.2013,-0.56364,1.1966,0.50752,0.45645,-3.4968,2.5228,0.55864,11.68,-0.92068,-4.1602,-3.599,-1.3034,-1.2779,-1.2524,2.1656,0.17609,-1.1248,-1.5074,0.48211,-0.35953,0.89029,0.91574,-1.8645,0.53321,5.2776,-1.941,-1.9666,-4.2112,5.0991,-1.3288,-0.99732,-0.41061,0.3036,-1.9411,0.9413,3.7217,1.7066,-1.0993,-1.0993,0.27819,-2.2472,7.0886,-1.5585,-1.992,-0.7676,-2.0686,-0.38508,1.3494,1.0689,-0.43614,-1.3799,-3.1909,3.6196,2.7013,-2.0941,-2.2471,0.38023,1.528,1.5534,-1.4564,-0.84419,2.4973,-0.23202,0.71176,-1.0227,-2.1196,1.0177,-1.89,-2.9103,6.6296,4.8696,2.2423,-1.2268,-2.2216,-1.2014,-0.84425,-1.0992,-2.1452,1.273,1.0943,1.1962,2.1402,0.20169,-1.7369,-1.7369,0.78837,-1.9156,-2.1707,-0.2831,5.4817,0.4057,-0.74221,-0.41062,-1.0993,-2.6042,-1.584,2.5227,-2.3747,3.0585,-0.71662,-1.4309,1.222,2.1657,0.32909,-0.56368,-0.61471,-0.38511,-0.66569,-1.4309,-0.92073,1.2984,2.0126,1.7831,-2.9357,0.20159,-0.56366,-2.1452,-2.5788,0.60977,0.60972,0.099497,-1.0738,0.78828,-0.66561,2.0892,-0.53815,-0.079033,1.2474,-0.71667,0.30365,-0.25762,-1.2524,-0.30854,-3.4714,2.5483,1.8086,-3.1654,3.6962,-0.79323,-0.48702,-0.97199,0.25256,0.048531,3.6451,1.7576,-1.6094,-1.0992,-1.0993,-1.9411,2.5228,-0.027938,0.30365,-0.92071,-1.9156,1.9872,0.60968,-0.027998,-1.5329,1.4004,0.048567,-0.4871,0.22709,3.7217,-2.1196,0.20159,0.2015,-0.46165,-1.9666,1.7831,-0.66563,-3.1654,2.0382,4.742,-0.002497,-2.6808,-1.3289,-1.3289,1.3495,1.6811,2.931,0.58414,-1.9666,-1.1758,-1.89,-0.28312,0.023017,-0.84403,-0.76789,-0.99744,6.1706,0.074124,-2.1196,0.27815,-0.56367,-0.53813,-1.3544,-2.196,-0.86979,3.4665,0.96677,6.9611,-1.1758,-3.3949,-1.3799,0.3291,-1.8135,-1.4564,0.22712,-1.3799,0.20161,5.4562,3.5941,0.25262,-1.3034,-1.584,-2.6297,-1.941,2.2677,1.6045,-0.20654,-0.76762,-0.74211,-0.41054,-0.10451,0.78814,0.53312,0.1506,0.86475,0.35448,-0.33389,-0.35948,0.66075,-1.4564,1.8086,0.023035,-1.635,1.477,0.83931,-0.13002,0.22709,-2.9359,-1.0483,-0.79322,-2.4257,6.6551,-0.66565,-0.079021,1.7576,-1.2268,-2.0686,1.0943,-0.69116,4.2063,-1.1758,-1.533,-0.97177,-1.0482,0.40566,-1.1503,-2.1961,2.3697,0.73721,6.9356,0.35465,-2.5533,-1.7625,-1.7114,-2.0939,0.55869,2.0379,-0.46155,0.76277,-0.58907,1.8596,0.17612,0.25267,-0.86975,-1.5584,-0.20653,2.8289,-0.46159,-1.7369,0.17612,-0.23208,-1.0738,-0.76764,-0.66569,4.6399,2.1146,-0.43613,-1.9921,-2.5277,0.71177,4.6144,-0.12998,-1.9666,-0.58913,-2.9614,-0.10449,2.0125,2.9309,3.4411,-2.7571,-2.3238,-2.1196,-2.0175,-2.7828,0.27808,0.78825,0.76275,0.3802,1.8852,0.30362,-0.56365,0.099503,-0.79327,2.1148,3.7472,-0.97182,-1.584,-1.584,-2.4512,2.7269,-0.002443,-3.0378,1.579,3.2115,1.732,-1.9411,-0.71668,-1.0227,-1.1248,0.5842,0.27813,1.3239,4.5889,0.22717,-1.9666,-0.30873,-0.64017,-1.5584,-0.23203,-0.4871,-0.48703,0.73723,0.68621,-0.66571,-0.71658,2.1147,-2.2216,4.385,4.3083,-1.686,-1.7626,-0.86972,-0.23205,-1.5839,-0.84432,-0.66575,-0.99725,2.2168,2.8799,-1.1758,-1.4564,3.1861,1.3749,-0.6912,-1.89,-1.737,-0.078984,0.76278,-0.99731,-0.64021,-0.6402,1.8851,0.96679,-0.56363,-0.58914,2.7269,0.40567,0.3547,-0.94625,-1.788,0.12504,-0.20657,2.4463,0.17611,1.4515,-2.0431,-1.0228,-1.2269,-0.53807,1.3494,-0.84424,-0.9972,-0.28313,3.9767,-0.84417,-1.4563,2.1657,0.94131,-1.1248,-0.18099,0.83933,-0.71671,-1.2014,-0.53808,0.27805,-0.33409,-0.10451,-1.4309,0.17619,-0.61465,-0.79319,-0.71668,0.55867,1.2985,-0.46167,0.60971,-0.48699,-1.2269,1.4514,-0.97174,1.4005,1.8341,-1.0483,-0.81868,-0.61468,-0.66566,-1.2013,0.048561,0.048561,-0.20652,-0.23205,1.1454,0.43112,1.2729,-0.10448,0.63528,-1.7114,2.6503,-0.94631,0.32915,-1.941,2.6758,2.6502,-1.2013,-1.4309,-1.3288,-1.2013,0.40552,1.2729,-0.30855,0.50776,3.2116,-0.53814,-1.4055,-2.4513,1.7066,2.7013,-1.2523,-1.1503,0.48218,0.50767,-0.51263,1.9106,-0.18103,-0.20652,-0.5126,1.8851,-0.97177,-1.4309,0.50767,0.58422,-0.027944,0.023035,-0.33406,0.73724,0.2271,-0.053544,0.074026,0.17622,-1.2269,1.8595,0.96679,-0.84424,-0.30854,0.2271,2.8289,-1.3798,-1.4053,-1.0738,0.38013,-0.94627,-0.9718,-1.0738,0.76272,4.1553,-0.078972,-0.48708,-2.5277,4.0533,0.38015,0.66077,-1.5839,-0.92077,0.9668,-1.4564,-1.3799,-1.5075,2.0635,1.1198,-0.10435,0.02301,0.17604,-1.0482,1.5025,-0.51264,-0.35957,1.4515,-0.81869,-0.8187,2.9564,-0.10455,0.023035,-1.0227,-1.9155,3.9002,-0.5892,-0.94624,-1.4819,-0.71666,3.5431,-0.002497,-1.4309,-1.5839,-1.686,1.477,-0.23205,0.12507,0.20161,0.048549,-0.43612,3.5941,0.32913,-0.66568,-1.2523,-0.69118,-0.23205,-0.61463,-0.30854,2.7014,-0.66573,-1.0483,0.5587,-0.56363,-0.18099,0.25257,-0.56368,-1.686,1.0179,1.6811,0.83931,-0.5126,-0.97171,0.55866,-0.10459,-0.89516,-0.28297,0.40566,-0.58916,-1.3034,-1.3544,1.6045,0.32913,-0.64015,-1.2268,1.0434,-0.89524,-2.1451,2.8034,1.2984,2.3188,-0.13006,-0.92075,-0.84425,-0.4361,-1.2778,-0.25752,2.0127,-0.41055,-1.0228,1.5025,1.4259,-3.8542,-1.533,3.1095,5.2522,-1.5074,-2.2217,-1.2013,0.81383,-0.97176,0.89026,1.0943,-0.81869,0.86479,-0.28308,-0.81871,-0.25753,0.63523,2.7013,-0.97177,0.2016,-0.10452,-1.1248,0.35469,2.6758,-1.8901,1.3749,-0.6657,-1.3289,-0.20655,-0.51262,-0.28305,-0.69117,0.048531,1.0688,2.4208,-1.3543,0.35461,0.17601,0.048592,-1.7369,0.45667,-1.1248,2.2678,-0.43612,-1.7115,1.3239,0.78829,-0.58918,0.35462,-0.66564,-0.79327,-0.41061,0.20165,-1.839,1.324,-1.3289,1.7065,0.4056,-0.10449,-0.81871,-0.48713,3.7472,-0.3851,-2.1705,0.48219,-2.1706,1.1964,1.1964,-1.0228,4.4104,-2.2216,-0.64017,-1.6859,-1.839,3.7727,-0.053482,-1.9155,3.4156,-0.84424,-0.20653,0.60973,-0.23202,-0.79321,-0.86974,-0.078874,-0.43614,-0.6147,4.5889,1.5535,-0.94625,1.2474,-1.5329,-2.0431,0.15057,1.0178,0.45668,-1.3544,-0.28308,-1.992,0.50769,0.30365,0.023059,0.89027,0.20159,1.1964,-1.0993,-0.64018,-0.35956,-0.23205,0.43116,0.91583,0.32912,0.35469,-0.23207,0.96679,0.17604,-0.38495,-1.0483,0.91591,-0.41061,0.55857,-0.74226,3.5176,-0.81871,-1.1758,-1.6604,-1.635,0.5077,1.477,-0.89526,2.3443,-0.56351,-1.3033,-1.2014,1.7065,-0.94625,-1.2013,-0.18109,-0.48715,0.5587,0.30363,3.2625,-0.51261,-1.5074,0.30365,-0.89521,0.30363,1.5535,-0.86977,-2.0686,1.528,0.22715,-0.20651,1.0688,-0.15547,-1.0738,-0.33409,1.2219,-0.6912,3.7471,-0.74208,-1.9666,-0.53821,-1.0737,-0.23204,1.3494,-0.181,-1.3033,0.94133,1.3495,-1.0483,0.96684,-0.79321,-1.4309,0.07402,0.15056,-2.0941,1.1964,-0.69117,2.5483,0.074057,-1.4054,1.732,-1.3288,1.171,0.25259,-1.1758,0.96685,0.17606,-0.84428,-1.8645,1.5025,-0.89518,0.12509,-0.76766,1.0433,-0.97182,-0.027956,-0.30855,4.1043,-0.30862,-0.53817,-0.33409,-0.48708,-0.86971,0.15061,-0.20656,-0.20653,0.40565,1.3495,0.45667,-0.84414,-0.30861,-2.4002,3.0074,-0.56367,-1.8645,0.023072,1.1454,-0.84422,-0.86975,-0.79321,0.45662,-1.0228,3.441,0.71183,5.5073,-0.8442,-1.9921,-1.584,-1.4309,-0.15557,-1.4819,-0.002436,1.4514,0.38019,-0.33396,1.579,-0.20659,-0.58912,-0.66561,0.15056,0.6607,-0.8187,-0.94622,1.6045,-1.3034,2.1657,-0.81873,0.40562,1.9616,-1.0993,-1.7625,0.40568,-1.4309,0.099601,0.58427,0.30363,-0.84432,-0.84421,-0.58912,1.2219,-2.3236,5.0225,0.4566,-1.4564,-0.15548,0.32908,-1.2523,0.048555,-1.6349,-0.18102,1.7321,0.3036,0.86479,1.375,-1.1248,-1.7115,0.17611,0.66074,0.099534,-0.18104,-0.79319,-1.8135,1.8341,1.3239,0.048536,1.0434,-0.7932,-0.38508,-0.61465,0.60974,1.0944,1.6555,-1.1758,1.324,-0.41062,-1.3289,-1.2269,-0.30857,-0.23201,-0.027907,0.40568,0.63517,0.17606,-0.25756,-1.992,4.4359,-0.20647,-0.94629,0.99232,-0.25754,-0.97179,-2.6298,3.6706,0.58422,-1.4819,-2.3492,-1.1248,1.8596,-0.64015,-0.79324,-1.7115,1.9872,0.32915,0.048567,0.43115,0.2526,-0.30858,0.12504,-1.5329,0.40568,3.6451,-0.5637,0.5077,-0.84411,-2.2981,-1.9156,-1.5074,0.43115,-0.20657,0.22705,1.8085,1.1199,1.5535,-1.1503,-0.48709,-0.76769,-0.46159,0.35473,1.9616,-2.0431,0.81375,1.4771,-0.84423,1.579,0.99229,-0.94628,-3.344,0.17611,-1.1758,0.27805,-0.35961,-0.13005,0.68629,-0.64001,-0.94617,0.76275,1.0688,-0.46167,-0.30866,2.3953,0.45671,-0.12999,1.579,0.30361,-0.81871,-1.5329,-2.6552,0.22713,3.288,0.22708,-2.7318,-0.10452,-0.89524,-2.0941,3.0585,0.99234,-0.94626,-1.5329,0.22714,4.1043,-0.20662,0.81378,2.9565,-1.1248,-1.9411,-0.181,-1.1758,-0.56366,-2.8338,2.8034,1.426,-0.48705,0.12507,-0.61467,-0.84425,0.81375,0.27812,0.48218,-0.38509,-0.43609,-0.33405,1.681,-0.71666,-1.2778,1.3239,-0.18101,-1.2013,-2.4257,-1.3289,0.91569,1.783,0.15059,0.17614,-0.56361,-0.33406,-1.2013,-0.51262,1.0434,0.45667,-0.43612,-1.3799,3.4921,1.5025,-0.46164,-0.69116,-0.20652,-1.1248,-0.71671,-0.86977,-0.30858,0.32913,1.7831,1.63,-0.66562,-0.94622,1.9361,0.17607,0.099552,-0.81871,-0.35959,-1.5074,0.20157,1.2219,2.8799,-2.5022,0.48216,-0.46161,0.48219,0.22713,-0.25753,-0.43607,-1.0738,-0.79323,-0.89525,1.7065,0.3036,0.17609,1.1709,-0.33407,0.8393,-0.35956,-1.9155,2.2422,2.6249,-0.053458,-1.3543,-1.737,-1.3033,-0.2321,-0.23206,0.2271,1.273,0.35459,-0.4361,-0.33407,-0.4361,1.2474,0.89034,-0.13,-0.18104,0.6607,-0.4361,-1.6604,0.48217,-0.69124,4.5379,0.86481,-0.89522,-0.69115,-1.4564,-0.86974,0.50765,1.2219,-1.6349,-1.0228,0.38008,0.3036,0.76277,0.22716,-0.99726,0.99235,1.5535,-0.64016,-0.23203,-0.94622,-0.89522,-0.79321,0.2781,-0.4361,0.83931,-0.51262,-0.20652,1.681,0.76271,-0.92073,-0.181,-0.81872,-0.79319,-0.33408,-0.81866,-3.2675,1.4515,3.0329,0.83931,-0.69116,-0.25751,-0.41064,0.32912,3.4156,-0.46164,-1.6349,-1.1503,-1.1503,0.25263,0.45666,0.32914,-0.56359,-0.28311,0.78824,-0.46164,-0.51267,-0.81863,-1.4309,3.1095,-0.51261,0.83926,2.2167,-1.0483,-1.5584,-0.078984,-0.28302,0.40565,-1.2524,1.2985,1.9106,-1.4309,-1.0738,-0.6912,-0.86971,-1.0483,0.96686,-0.99726,1.0943,1.528,0.099595,0.048585,0.074026,0.15056,-1.1758,0.53311,1.0178,-1.6604,-0.74218,0.35467,2.2677,0.023054,-1.5839,-1.3288,0.63525,-0.97173,2.6248,-1.2524,-1.3799,3.186,-0.25757,-0.89524,-0.10447,0.074069,0.17608,-0.79322,-0.38509,0.50771,-0.25754,-0.41056,0.50769,0.099546,-0.66565,-0.25758,-0.13004,3.4921,0.86482,0.58425,-0.10448,-2.4002,-2.0941,-0.38512,-1.5075,1.1454,-0.30857,0.73724,0.048616,-0.97168,2.1403,-0.15556,0.78821,-0.079014,-0.079039,-0.23203,-0.33404,-1.0993,-2.7318,5.8643,-0.079039,-0.69118,-1.737,2.3442,-1.788,1.0689,-2.0685,0.023023,-0.25759,-0.99729,1.375,-0.07899,-0.33405,2.0381,0.45666,-0.58911,-0.79321,-0.94624,-0.35961,-0.66565,0.8648,2.2932,-1.2779,1.8851,-0.15552,-1.5329,-1.6094,-0.97175,-0.18097,0.15052,1.8596,-0.48712,0.35463,-0.64017,0.099534,-0.4616,2.0127,0.83925,-1.4819,0.12509,-0.94625,-2.1451,3.5941,2.2677,-1.992,-1.7624,0.60971,-1.737,-1.0228,-0.13001,0.17604,0.12506,-0.43603,-0.58915,1.579,4.4358,0.50769,-0.25753,0.53323,-0.99727,-1.5585,1.1199,-0.07891,-0.86969,-0.74217,-0.4616,-0.28306,1.1198,1.0943,-0.56365,-0.33409,2.2422,-0.35959,-1.4819,-0.30855,0.45664,-1.4309,0.023078,0.50773,-0.4871,0.30368,0.17606,-0.53815,0.20158,0.53323,2.0381,0.68622,0.15066,-0.58918,-1.584,-1.0228,-0.18102,2.1402,-1.6605,1.6045,0.89033,-0.8187,-1.1503,-2.1706,0.71176,0.30363,1.4515,-0.33401,0.20159,-0.46158,-0.079002,-0.61468,0.35466,0.66075,0.099559,-1.9921,6.1959,3.0585,-0.35957,-2.8083,-3.7266,-1.4564,2.3698,-0.58914,-1.0483,0.40561,0.074002,0.17609,0.30369,0.22708,-1.1759,1.0944,3.3135,-0.48709,-0.15549,0.53321,-1.6094,-0.079026,-1.3033,-1.6095,0.91575,0.99229,0.15062,-0.64016,-1.3544,-1.1757,-0.33416,1.1198,3.6706,0.27815,-1.686,-1.9411,-0.20655,-0.69119,3.8237,-0.92072,-0.84418,0.68624,0.8648,-1.5584,0.81381,1.7576,-0.48714,-1.2524,-0.43607,-0.48713,-1.635,2.8034,0.55869,-0.69115,-0.35959,-0.20652,-0.6146,0.048561,1.1709,0.30364,-0.10447,0.81379,-1.9156,0.53314,0.022998,-1.686,0.45672,-0.66564,1.7065,-0.46162,-0.84424,-0.56356,-0.51261,0.048549,1.4514,2.5228,-1.0228,-1.2268,-0.89523,-0.97172,-0.97174,-1.9411,3.288,3.3645,-0.53812,-0.99724,-1.2268,-0.53815,0.2271,-0.76769,0.76278,-0.53816,2.0892,-2.0176,0.83931,0.76278,-0.46157,-0.5381,-1.2013,0.55867,-0.61471,-0.71673,-0.30858,0.76276,-0.48708,-0.15548,0.99231,-0.15554,-0.38506,-0.33408,0.048543,0.71184,-2.094,7.5734,0.78823,-0.46174,-3.1909,-1.9155,0.94133,-1.7879,-1.0228,1.5534,1.2729,0.66072,0.68626,-0.53812,-0.71664,-0.38508,0.27814,-0.38507,0.09957,-0.30854,-0.15553,2.5228,3.3135,-0.76769,-2.4512,-1.7625,0.048549,-1.3799,0.48219,-0.61467,0.074013,0.2016,2.7014,1.0179,-1.0993,-0.86977,-1.2778,-0.74217,0.99239,0.63521,0.12503,0.48215,-0.28305,-0.002491,-0.027938,0.68626,-0.027993,-0.25757,-0.43612,-1.2013,-1.9665,1.6045,-1.3289,2.0636,1.0944,0.86483,-1.7624,-0.41061,-1.3034,-0.13005,-1.8645,-2.0941,4.2573,1.3239,-0.3086,1.4515,-1.0228,-0.64014,-1.1503,-1.0993,0.76274,0.40563,-1.2013,1.9617,-1.0227,1.1709,-0.84425,-0.002467,-0.46159,1.0178,0.3036,-1.1757,-0.51255,-0.33409,0.074002,0.099466,0.94129,-0.15548,-1.0483,1.8341,0.35464,-0.69118,0.50771,1.0434,-1.5329,-1.482,-0.053525,2.6758,-0.53812,-2.1451,1.7321,0.32912,-0.56359,3.7472,-1.2269,-0.81872,-0.23202,-1.2013,0.48216,0.76273,-1.2778,0.8138,-0.79324,3.9512,-0.92074,-0.232,-0.8187,0.35461,0.15056,-1.1503,-0.25753,-0.25756,-0.28302,1.4004,0.32908,-0.81871,-0.66562,-0.69115,-0.25753,-0.30849,-0.25755,0.91575,3.39,1.0178,-0.61463,-0.76769,-1.7625,-1.2013,-0.53807,-0.38513,-0.53813,-0.51265,1.0433,0.81379,0.45669,-0.99725,-0.53812,1.0433,-0.4361,0.76275,0.17608,-0.10446,-2.1961,0.38014,0.89024,1.7575,-0.33408,-0.76768,-0.33405,-0.10449,0.048573,-0.84424,-0.43606,1.8086,-0.18106,-1.0738,-0.43609,1.0943,-0.38511,-0.28304,0.5587,0.074062,-0.48712,-0.33409,1.8851,0.60976,-0.078959,0.15057,-0.84421,-0.84425,-0.94628,0.38014,0.96686,-0.41063,-0.53818,-0.58916,-0.64014,3.3646,0.12509,-0.74216,-0.1555,-0.79321,1.9616,0.5587,-1.2013,-1.2013,-1.3544,0.43117,0.1761,1.5535,-0.53814,2.8034,0.7883,-1.992,0.91577,-1.2524,-0.79327,0.43113,-0.53814
0.60972,-0.12999,-0.15552,-0.43612,-0.078996,0.12507,0.12509,0.12508,0.2781,0.30364,-0.002472,0.048549,0.17609,0.023023,-0.10449,0.023047,0.12505,-0.10447,0.048543,-0.28305,-0.12999,-0.053488,-0.18102,-0.053476,-0.027969,0.023035,-0.05347,0.25262,0.074051,-0.07899,0.099559,-0.13001,-0.10449,-0.002467,0.048536,0.074062,-0.027962,-0.46151,0.30355,0.25256,-0.12999,-0.28303,-0.28302,0.45671,-0.027956,-0.13,-0.12999,-0.053495,-0.23204,-0.64015,-0.28307,2.0891,0.76277,-0.28306,0.12506,-0.76769,-0.53813,-0.30857,-0.1045,-0.078984,0.048536,0.15058,0.1506,0.20159,0.25261,0.099583,0.074062,0.023023,0.023035,0.38016,-0.25756,-0.13001,-0.25753,-0.25756,-0.15551,-0.23203,-0.18103,0.15058,0.2016,-0.13,-0.12999,-0.18092,0.38007,0.32904,0.023054,-0.078977,-0.15546,-0.02795,-0.078996,-0.10448,0.15058,1.3494,-0.28307,-0.43612,0.074062,-0.43609,-0.43609,0.048561,-0.18101,0.89029,-0.46159,0.63523,0.89031,-0.18103,-0.48711,-0.48711,-0.10449,0.12505,0.023029,-0.027974,0.048555,0.12505,-0.027956,-0.078972,-0.15549,0.048555,-0.002448,-0.053488,0.099559,-0.10449,-0.002491,-0.18102,0.023047,0.074038,-0.002443,-0.053482,0.074038,0.2016,0.023035,-0.053476,-0.053464,-0.18101,-0.1555,0.35452,-0.10452,-0.23198,0.32915,-0.13,0.099588,0.53318,-0.35959,0.2271,-0.30856,-0.35957,-0.18103,-0.28304,0.38013,0.27811,0.074057,-0.13001,-0.18099,-0.078996,0.048555,-0.05347,0.099559,0.15059,0.099564,-0.13001,-0.12999,0.048549,0.43117,-0.15549,-0.33407,-0.23204,-0.078966,-0.1045,-0.20653,-0.078972,0.17607,-0.053506,0.048561,0.074051,-0.027987,-0.002448,0.17607,0.22711,-0.002454,-0.027974,0.09957,-0.25752,-0.41061,0.15059,1.1964,0.2016,-0.51263,-0.74218,-0.002479,0.30363,-0.18103,-0.28305,-0.20652,-0.46152,0.25252,0.17606,0.17611,0.074087,0.15059,0.15059,0.22711,-0.027969,-0.25753,-0.1045,-0.027993,-0.002485,-0.002472,0.023054,-0.053476,0.099546,0.048555,-0.10448,-0.027993,-0.07899,-0.002454,-0.20652,-0.0535,0.023047,-0.12998,0.22708,0.40565,0.20161,-0.002479,-0.28305,-0.1555,-0.15552,-0.1045,0.048567,-0.30856,1.2984,0.30364,0.89029,-0.43612,-0.89521,-0.64015,-0.35959,-0.15549,0.048543,0.048543,1.3239,0.22708,-0.078972,0.048536,-0.10449,-0.25752,-0.10452,0.048549,0.023041,0.048549,-0.002454,0.09954,-0.1555,-0.0535,-0.053482,0.048549,-0.1045,-0.078966,-0.002467,0.048543,0.023054,0.15057,-0.078972,-0.027993,-0.18101,0.12509,0.30361,-0.027974,0.048555,-0.10451,-0.23202,-0.20653,0.27812,-0.43608,0.9413,0.96682,-1.0228,0.023035,-0.027962,-0.46159,-0.30855,-0.027993,-0.078984,0.074062,-0.002467,0.099559,0.22712,0.38016,0.20158,-0.027974,0.38017,-0.20653,-0.28307,0.023065,0.023035,-0.46154,0.25253,0.048506,-0.053451,-0.027925,-0.053476,0.12509,-0.053476,-0.079008,0.048549,0.074051,-0.20653,-0.002454,0.15056,-0.053482,0.023047,-0.002479,-0.18102,-0.25753,-0.078996,0.73725,-0.35956,0.09957,-0.18102,-0.33407,0.89031,0.22713,-0.38508,-0.41059,-0.23202,-0.15551,-0.07899,0.023059,0.15057,0.15056,-0.02798,0.81379,-0.002491,-0.25754,-0.30854,0.2526,0.023023,0.35464,-0.12999,-0.15553,-0.12999,-0.12999,-0.15551,-0.13001,-0.18101,-0.12999,-0.15551,0.94131,0.074062,-0.10449,-0.02798,0.048531,-0.33406,0.20159,0.074069,-0.23203,-0.078984,-0.078984,0.099546,-0.002467,-0.18095,0.38008,0.12501,-0.30852,-0.5636,0.94135,0.048585,-0.23204,-0.41059,-0.20651,-0.002491,-0.027987,-0.15553,0.023023,1.4515,0.048555,0.074038,-0.41058,-0.35956,-0.15553,-0.13001,0.023059,-0.20655,0.96683,0.22712,0.048555,-0.41061,-0.66566,-0.027974,1.0179,0.20159,-0.28307,-0.28306,-0.18101,-0.23204,-0.18102,-0.10448,-0.07899,1.0433,0.81378,-0.18101,-0.30857,-0.74221,0.86479,-0.10448,-0.079008,-0.30855,-0.12999,0.099564,0.35463,-0.07899,-0.1555,-0.078996,-0.0535,-0.35958,1.1964,-0.002467,-0.30858,-0.28305,-0.002454,0.09957,0.048531,-0.18101,-0.20653,0.048573,0.5587,0.27811,-0.23203,-0.181,-0.30856,-0.30857,0.023035,0.15059,0.22712,-0.28305,0.71175,-0.4106,-0.23205,0.68624,-0.30856,-0.46159,-0.078972,-0.13001,0.96682,-0.20653,0.32912,-0.18105,-0.28306,-0.30855,0.78829,-0.078984,-0.23205,-0.1045,0.40566,-0.15549,-0.18103,-0.15553,-0.12999,-0.002467,-0.002472,0.58419,0.12507,-0.10449,-0.053488,-0.07899,0.45666,-0.20652,-0.51261,0.81378,-0.15551,-0.13001,-0.12999,-0.053476,-0.10451,-0.30855,-0.33404,0.53319,0.38015,0.35464,-0.23203,-0.33404,-0.23203,-0.13002,-0.18102,-0.078972,-0.002461,0.09954,0.17609,-0.078972,0.12506,0.25259,0.27812,0.074136,0.099454,-0.079039,0.074081,-0.64012,-0.38506,-0.078977,-0.002448,0.12505,-0.027974,-0.053464,0.15057,0.023023,-0.20651,0.30363,0.27809,-0.18101,0.023041,-0.15551,-0.10449,-0.027962,0.12505,-0.13,-0.15549,-0.33405,0.048549,0.55866,0.43117,0.12507,-0.58913,0.71177,-0.58901,-0.002577,-0.58921,-0.56362,0.074062,0.53325,0.12508,-1.4562,-0.64021,1.2473,1.1963,0.02298,-1.0737,0.89035,-0.66565,-0.79321,0.1251,2.4718,-1.6605,0.15054,-0.86977,1.1454,0.58412,-0.28308,-0.51255,-0.30856,-0.35954,-0.46174,-0.53815,0.074057,-0.8441,0.4313,0.89019,-1.1759,2.7269,-1.4562,-1.2525,0.81411,4.8181,1.0943,1.5535,-3.8542,-4.7978,-4.3641,2.9821,12.114,-1.737,-5.0275,-5.5887,-4.7725,-0.13007,-1.5074,7.6497,5.3539,-2.5531,-2.094,-1.5075,-0.81879,5.9154,6.2725,-2.3236,-2.2727,-4.1093,-3.7521,5.8643,-2.4002,4.4614,6.0429,-4.4663,-2.4766,-2.4512,1.2728,1.9105,3.4156,-3.0123,-5.104,-4.9255,6.3489,0.074069,-0.13005,2.1656,-0.69116,-6.2518,7.7264,17.292,-0.61467,-6.0478,-6.3793,-1.941,-2.9613,-6.3284,-1.2268,0.63525,0.50767,-4.9765,1.9615,18.593,-5.1551,2.4973,-2.4767,0.66082,-0.86982,-3.65,-3.0122,0.12521,-2.5277,-1.4565,2.4973,0.7372,0.58407,-0.38513,-3.7521,3.6451,13.466,0.91586,-5.41,-5.2315,5.4052,2.3952,-3.2165,-1.3799,-0.078972,-1.8645,-2.7318,1.0944,-2.0941,2.6248,1.0178,3.6706,3.7471,1.0434,-2.5022,0.55873,-5.5886,-2.0431,3.6707,4.0788,0.25265,-4.4153,-1.3544,4.7165,-1.6095,-0.94623,-3.3695,-4.3133,5.5072,6.7572,-0.53824,-1.5075,-1.1248,-1.0227,-1.0737,-1.3543,-3.1399,0.83921,3.8747,5.8897,2.9564,-2.1962,-3.9561,-7.2211,-1.7625,9.4099,-4.5939,3.1861,1.1964,-1.2269,3.39,-2.2216,-2.5532,-1.3033,-2.0941,-1.8391,12.088,1.6555,0.71173,-1.2524,-2.9614,-5.206,0.76281,6.1959,-2.1706,-3.4205,-1.3799,0.074038,-1.0738,-1.2524,-1.482,4.8695,0.63532,0.023188,0.32917,-0.002552,-0.20663,0.48213,0.83926,-0.74218,-0.58913,0.38012,-1.6094,0.45668,-1.89,9.767,2.7524,-3.4715,-0.86969,0.20161,-1.6605,-3.6756,0.78829,-1.1504,-0.56365,-0.30857,2.5483,1.1199,2.3952,-0.15557,-1.6604,-0.18098,-0.002381,11.68,0.89026,-3.8287,-3.5736,-2.5788,-0.15554,0.58423,-2.5532,1.1199,0.83926,-0.53814,0.38017,-0.25754,0.83926,2.7269,1.7576,1.8851,-4.0071,0.43122,-2.3491,2.1657,-3.9817,2.7778,-2.7829,-1.0993,4.3849,0.15062,-1.839,5.1756,-0.58914,-3.8286,-0.92071,-0.51259,-1.4819,1.1198,0.17607,0.76278,0.15056,0.55872,-0.20652,2.5993,-1.3289,-1.7625,9.614,-1.788,-2.6807,-2.0686,1.1708,-2.0941,-0.81873,-0.74217,-3.2164,-2.7828,2.3442,5.7622,0.55867,-1.839,-5.1294,-3.2419,3.1859,6.1959,-1.3799,-1.9666,-1.8135,5.0736,-3.4205,-3.5735,0.50771,-0.46162,1.426,-1.737,-2.8848,-0.81872,2.0891,3.8747,-1.0993,-0.74218,-2.8849,0.25258,-2.2982,0.83926,1.3239,1.6556,-2.043,0.66078,1.0178,-0.10463,-0.38511,-0.30858,-0.20659,-0.20656,-2.1196,4.9971,-0.33401,3.5686,1.1709,-1.1758,-3.242,-2.6043,1.6555,-2.4767,-1.6095,2.2167,0.89031,0.15059,-5.1805,-2.1451,11.093,2.4718,-3.6501,-2.2982,-3.2929,-4.1857,2.1656,1.8341,-0.43612,-0.97177,-0.71669,-0.46164,0.099588,2.0637,-0.027962,-0.12985,-1.0228,2.2677,-2.0176,5.4562,1.477,0.78824,-1.4309,-2.1196,-0.81871,-2.5788,1.7321,-1.2524,-0.51262,4.0788,0.074038,2.0382,0.048561,-3.0379,4.3083,-2.2472,-5.4611,5.9664,1.426,0.40568,-3.5225,1.9361,-2.6553,0.50769,-3.1144,3.1605,3.5686,-0.56366,0.023059,-0.46157,3.8492,-1.2778,-3.1909,-0.23205,-0.6147,-0.97174,-0.028029,0.55861,0.25262,1.477,-0.58909,0.099588,0.76276,0.45665,0.94131,-0.71665,-0.48714,-1.1503,-1.4819,-2.3237,0.66075,5.0736,-0.66564,1.2475,-2.1451,-1.9921,4.4613,-2.4257,-3.0634,2.3952,0.48216,-2.7318,4.4359,-1.1503,1.4515,1.3239,-0.6402,-1.533,0.5332,0.12511,-4.5429,2.1402,7.2162,1.3749,-2.6297,-1.1758,-2.0686,-1.2524,-1.8135,-0.46157,-0.002461,0.76278,-0.28309,1.5279,1.4769,-0.35956,-1.2523,-0.10449,0.73726,-1.89,3.033,2.1656,-4.951,1.681,-1.9156,0.2016,-1.0738,0.35466,-4.5939,8.0835,7.7774,-0.078996,-2.8083,-4.1602,-2.0942,0.176,1.0178,1.0434,-2.4512,5.2267,-0.92071,1.9106,0.2781,-0.053519,-1.3544,-0.25758,-1.737,4.5634,0.78826,-0.69114,-0.56362,-0.89523,-1.2778,-1.2779,0.17607,-2.2981,-0.23208,1.477,4.1298,-0.94622,-2.9358,-0.48716,-2.0686,-1.4054,1.6555,-2.5022,-1.3289,0.99232,0.38013,4.895,-0.48714,-0.89528,-1.533,1.0179,-0.89523,-0.20649,1.1199,-2.9613,-2.8849,7.0632,-0.002491,-1.0228,0.32911,-2.7063,-1.839,0.38019,-0.078972,0.2271,-0.5636,0.099577,-0.56362,0.7883,1.3239,0.25254,-0.97179,-0.58918,0.43113,-1.2523,3.4411,-1.9665,0.89029,-0.43609,1.579,-0.20649,-1.3289,-3.2419,-2.4257,0.94127,-2.3492,4.2573,0.60975,-0.181,0.27811,4.0533,-2.0686,-0.46154,-0.33407,-0.53811,-1.4309,-1.2013,-1.8901,1.4004,3.39,1.732,-0.002479,-0.23203,2.4208,-0.99724,-1.0228,-0.79322,-0.92069,-1.1502,-1.9921,0.58412,4.5124,-3.1654,1.1199,4.5379,0.86478,-0.79321,-2.7573,-2.6808,0.60971,-0.38507,-1.7881,2.7013,-1.1503,4.3849,-0.38505,-1.1758,1.426,-0.6402,-2.2471,-0.41061,0.25262,-1.4308,1.477,1.7066,-1.6094,0.94127,1.9616,-2.1451,-1.5074,-1.5074,2.4463,-3.6246,-1.3544,-1.737,3.4411,1.0434,-2.0431,-0.56365,7.8539,-1.5074,-2.5277,-1.8901,-1.9156,-0.002454,0.53322,-1.0737,2.4718,4.1808,-2.2982,-0.9463,-0.10455,0.45666,0.53323,-1.7115,0.20164,-0.41061,-1.2013,-1.788,1.1199,4.946,-2.5533,0.6352,-0.13,-1.2269,-1.3799,0.27822,-0.71656,4.7674,1.2728,-0.13009,-0.92079,-1.3033,-1.5584,-1.4819,-0.51258,0.25264,2.4208,-0.53814,1.1454,-0.41058,-0.23203,-2.8339,0.76276,-0.33409,-0.10449,0.73728,-1.1248,-1.8901,0.48217,-0.18103,3.288,2.6248,-0.92068,-0.64016,-0.027938,-1.8134,-2.0431,-1.5585,7.4458,-0.33415,-3.0634,1.6045,0.94136,-0.078947,-2.6807,1.375,-1.4564,0.63523,-2.1707,1.5791,-0.25753,2.4973,0.40563,-1.1759,-2.1962,0.30354,2.1656,1.0688,-2.1961,-2.7828,-3.2419,0.22712,-0.20647,0.50771,-0.84421,0.38016,0.30363,0.25262,0.27815,0.15055,0.96678,-0.86972,-0.20656,0.35463,0.50765,-0.3851,-0.89512,1.0434,-0.9463,-0.56359,0.35466,0.048598,-1.4309,0.63517,0.71169,0.4567,0.53321,-0.30855,-0.23203,0.53315,0.38016,-0.28303,3.7727,0.66075,-2.7062,-1.89,-0.33412,0.12511,-2.4002,1.2984,-0.23207,-0.92079,-0.35958,-0.13,4.4614,-1.3288,0.099552,2.8799,3.3135,-0.74218,-1.8135,-2.4002,-2.3237,-1.686,-0.86972,0.074087,1.1708,0.048536,0.8648,-0.2065,-0.61462,-1.0482,0.27811,4.6144,1.63,-0.23208,-0.89525,-1.3034,-2.7318,0.048536,1.9361,1.4515,0.55873,-1.6605,1.0944,-0.92072,-0.4106,-0.74223,-2.1451,-2.3236,1.7831,-0.30857,-0.10456,0.81377,-1.1249,-0.74225,2.4207,7.6499,-1.737,-1.6349,-2.3237,-1.8135,-0.97177,-0.53811,-0.69121,0.2781,2.8544,0.12508,-0.69114,0.63519,-0.4106,-0.20655,-0.97171,0.91584,-0.97174,2.6503,2.3697,0.20163,-3.8031,-2.8083,3.441,0.30365,-1.3799,-1.2523,1.1709,-0.02795,-0.66561,-1.5584,0.86476,2.8033,2.2677,0.50772,-1.635,0.86477,0.53317,-0.15551,-0.028011,-2.4002,-0.66566,0.78835,1.4004,1.0688,-2.2982,-2.1706,0.30363,2.5993,1.9616,-1.3288,-1.7114,1.1964,-0.56367,-0.4361,-0.8187,-0.078966,1.579,0.96681,-2.9868,0.58421,1.9361,9.8435,-0.56369,-2.9613,-2.5023,-2.5788,-4.5938,1.5791,1.8342,-0.23198,3.8747,-1.4564,-1.4564,-1.0483,-1.3034,0.68625,2.0892,-0.41064,-0.53812,-0.56364,-0.97179,5.5327,0.45666,0.15059,-2.4512,-0.97169,0.15059,-1.6349,-0.028042,-1.3034,-0.58914,1.5025,-0.15549,-1.2269,0.81378,0.2526,0.43122,0.99241,-0.053531,-1.0738,-1.5585,0.2526,1.477,3.5686,-0.92079,-0.53812,-1.686,-2.3747,-2.5022,5.3542,-0.18103,-0.38503,-1.788,0.15052,2.7779,-0.18101,-0.38513,-0.38509,-0.71667,-0.94622,0.35467,2.1912,-1.3289,-0.3086,-0.35955,0.8138,0.099588,-1.2013,-1.6094,1.9106,-0.10454,-0.28309,0.86477,0.1251,0.32915,-0.86975,1.477,-0.5381,-0.84421,1.4515,-2.3236,1.4259,0.63517,-0.69121,-2.4512,-2.2471,5.4561,2.0892,-1.6859,-2.8848,-0.23205,-2.4512,2.8034,-1.1503,-0.33402,-0.89521,-0.33406,-1.1758,-1.0228,-0.20655,1.9871,2.4718,0.96683,0.60973,0.40567,-2.1196,-1.9666,-1.0993,-0.61468,-1.3034,-0.74221,-1.0993,0.53324,2.2422,1.1964,0.7373,-0.99729,-1.0994,-0.81876,-0.99716,-0.43609,-1.5329,-2.3491,0.12502,4.946,0.76277,-0.69108,0.78813,-2.5278,-0.027969,-3.1144,1.0179,2.0892,-2.1961,0.35465,1.0178,-0.8442,0.99234,-0.48713,-0.64015,1.5535,-0.002467,-0.79325,0.53322,-1.0993,-1.839,8.0324,-0.66565,-1.3544,0.099552,-0.078996,-2.1451,-0.51263,-1.4564,0.58427,-1.6605,1.4515,-0.18108,-0.25754,1.1709,-0.61467,0.099552,3.9002,-0.053482,-1.839,-0.76767,1.681,0.9413,3.3135,-1.0993,-1.4054,-2.1451,0.32913,-1.4819,1.4515,-0.18105,-1.5839,1.2219,0.60971,0.25264,-0.4871,-0.76771,-0.25751,1.8596,0.12506,-0.89526,-0.25754,3.9768,-0.079021,1.0433,-2.1196,-1.9156,-1.4564,-2.4767,1.5281,0.048561,0.32913,-0.10447,0.48219,0.45666,0.1506,-0.84427,0.83925,-0.43612,-0.79314,-0.74216,2.3952,3.5941,0.023035,-2.1961,-2.4512,-1.0738,1.579,-0.38509,-0.33406,1.1709,0.38019,-1.5074,3.135,0.38014,-0.81874,-0.38511,-1.788,-0.18103,2.2422,-0.283,0.76274,1.8086,1.7321,0.023127,-1.4564,0.86479,-0.33409,-0.7932,-0.64025,-0.66569,-0.8187,0.66077,-0.56362,1.477,1.426,-0.30858,-2.1196,2.2422,-1.2523,1.1964,-0.92074,-1.0228,-0.15551,-0.23207,-0.053513,1.0943,-0.33409,-2.6042,3.4921,3.0329,-0.33407,-1.4054,-1.4564,-0.94626,-0.84421,-1.0483,1.1199,-0.23203,-0.1045,2.6759,0.94131,-0.56362,-0.61464,0.099552,-0.10445,0.1506,-0.56367,-0.89526,-1.1504,-0.10451,1.7576,0.32915,0.25264,-1.992,-1.38,0.32908,1.7321,-1.1758,0.30365,0.89034,-0.38506,-1.1503,-0.25756,-0.20656,5.7622,-1.635,-0.97173,-0.4106,0.63522,-1.635,-0.23205,2.0891,0.68623,0.40565,0.40569,-1.4054,-1.584,-0.69115,0.35465,0.94136,-0.232,2.6248,0.074044,-0.58913,-0.53814,-0.94625,0.40566,0.20159,0.32913,-0.58916,-1.7881,2.3697,-0.10445,-0.94624,1.0689,-1.1758,-1.1249,0.048531,0.96682,-0.35956,0.25262,1.2474,-0.8187,-1.839,0.45666,0.68622,-0.84419,1.8851,-0.4871,0.074062,0.099515,0.22705,-0.38508,0.58424,-1.737,0.76274,1.681,-0.002448,-1.5329,1.9106,-0.58911,-1.5839,0.43118,-1.0227,-1.0228,-0.8698,2.6248,-0.61466,3.8237,-1.0228,-1.5074,0.7883,0.22712,-2.5023,1.8851,1.6555,-2.2472,0.58419,2.3697,0.71185,-1.1503,-0.81873,-0.43612,-0.25757,0.099534,0.099564,0.27812,-0.25753,-0.43607,2.4208,-0.23204,0.71172,0.43114,0.22708,0.048567,-0.5381,-0.64012,0.048549,-1.4819,-0.43609,-0.18103,-1.2269,1.579,2.6249,-0.3851,-0.51262,-0.61469,-1.5074,-0.86972,0.78828,-0.69115,-0.64018,1.0433,2.9054,-0.33404,-0.58915,-0.25759,-1.1248,0.86478,-0.053488,0.15056,-0.053451,-0.71668,0.17605,-1.686,1.477,-0.25756,-0.84422,-0.66564,-0.79317,-0.12999,0.94131,-0.41058,0.17607,0.27812,0.78825,-0.99728,-0.28306,1.0943,0.099588,2.6249,-2.043,3.084,-1.3034,-1.431,-1.9666,0.53317,-0.35958,3.237,-0.64014,0.48216,1.1199,-0.25751,-1.686,-0.027974,0.76275,-0.38506,0.83928,-0.232,-0.51258,-1.4564,1.528,1.0688,1.1708,0.2526,-0.4361,-2.4512,0.63518,0.71175,-1.3289,2.5994,-1.4054,-1.0993,-0.97177,-0.99726,0.86486,0.6608,-0.46161,0.048506,0.32909,1.1708,0.048549,-1.1758,-1.4054,4.3339,1.7321,-2.7318,1.171,-0.66566,-1.482,0.099528,1.9616,-0.28307,-2.6808,-0.5636,-1.0738,-0.64016,1.2219,1.1964,-0.13004,0.86476,0.30363,-0.1555,0.68624,1.477,0.45672,-1.5584,-1.0738,-0.71666,-1.1248,-0.46161,-0.74218,0.074062,3.1605,-1.1248,0.55866,-0.84426,-0.64018,-0.51259,-0.053464,-0.53812,-1.4309,4.8185,0.22715,-0.33409,1.0178,-0.28305,-2.0175,-2.2727,-0.76773,0.15057,-0.25753,1.8596,-0.89521,0.86482,-0.71663,1.528,-0.43609,-0.18105,0.40565,1.2474,-0.23204,0.2271,-0.81874,0.40567,-1.0482,-0.079014,0.023047,1.579,-0.58914,1.2219,0.074057,-1.1503,-2.0941,-0.51263,1.6556,0.074062,-0.002521,0.30361,-0.46161,-0.86972,0.71173,1.9106,-0.078953,-2.0176,-0.76768,2.9309,1.2474,-0.43608,-1.839,-1.3034,-1.0228,0.099534,-0.07899,-0.181,-0.027987,0.074087,0.63523,0.99239,-0.48711,-1.2779,1.7831,-0.002461,0.074051,-1.686,0.76278,-0.53812,-0.2065,-0.97177,-1.6605,-1.4564,3.1605,0.048561,-0.81872,-1.2523,-0.66568,-0.41057,-0.002461,-0.002528,0.66074,0.30363,-0.053415,1.324,-0.23207,0.074026,-0.53812,1.1964,-1.3289,1.9361,-1.1758,-0.76769,-0.69116,0.25265,-0.10442,0.099552,-0.3851,-1.2779,0.91576,0.20157,0.048531,1.2219,0.71173,-0.25752,-1.0737,0.04861,-1.2269,4.7165,-0.25751,-0.48711,-0.94627,-0.38508,0.074075,-0.41063,-0.89527,1.528,1.2219,-0.4616,-0.51263,-0.69116,-0.74213,0.86483,-0.94626,-0.25756,0.20159,-0.23201,0.40563,-0.28308,0.89026,1.0943,-0.58913,0.48222,-1.4819,3.4156,0.94133,-0.86974,-1.0483,-2.5532,-0.28302,-1.1758,0.55869,3.1095,0.83897,0.27798,0.30366,-2.4,-1.7112,2.0383,-0.74209,-2.6041,2.5484,-0.41059,-1.6605,1.9105,-0.48724,1.5278,0.66058,-0.10464,-0.23215,0.074038,0.55867,-0.51261,-0.002418,0.32922,2.5229,-0.9972,-2.0941,0.023078,-0.89521,0.40569,1.2219,-0.4106,-0.41057,1.3239,-0.74216,-0.28311,-0.35959,-0.8442,0.023054,-0.13004,0.17607,2.1657,-0.002491,-0.23203,0.35468,-1.635,-1.2523,0.27811,0.55872,-0.89524,-0.43613,1.9871,0.9668,-0.46163,-0.79319,0.099583,-0.74213,0.94132,-0.18101,-0.027987,0.68624,0.81371,0.32909,-0.35958,0.86481,-1.3799,-2.0176,-1.3033,0.099564,3.5431,-0.23203,-0.7932,1.2985,0.73724,-1.0483,-1.3033,-0.94628,-0.3341,4.3083,-1.2013,1.8341,-1.8135,-1.9921,1.8086,0.45667,-1.4564,-1.1248,0.99239,-1.0993,-1.5585,0.40565,0.58421,2.7013,-0.002503,1.069,-2.2216,0.63523,-0.18106,-0.10454,-0.30858,0.50768,0.53317,0.099552,0.66075,-0.71666,-1.8645,-0.9207,2.5993,1.0433,0.17606,-0.86976,-0.92075,-0.48711,-0.56362,0.43118,-1.5839,-0.15554,2.7779,0.20158,1.3239,0.048573,-0.97171,-1.4564,-2.1706,1.783,0.71173,2.8544,0.60967,-0.84423,-1.635,-0.23204,-0.86969,-0.89522,0.99239,-0.79315,0.50769,1.0689,1.1454,1.3239,0.0485,-1.0483,-1.4309,0.73728,1.2219,-0.25758,-0.33404,0.60977,-1.5584,-0.18103,-0.002485,-0.51263,-0.25753,0.35466,1.0689,-0.33409,-0.56364,-0.43609,-1.2268,-1.7115,1.0944,2.8289,0.2016,-0.69119,-0.69116,-0.33406,0.6607,-0.61466,-1.0483,-0.92072,1.12,2.9819,-0.43613,0.83927,-1.0738,0.40566,-0.92079,-0.99727,-1.2268,-1.0738,2.8289,0.53318,-0.078996,0.048531,-0.20652,-1.3799,-0.43607,0.17614,2.2167,-0.86974,-0.25754,1.1199,-0.69118,-1.2524,-0.64018,-0.43611,-0.15552,-0.38509,0.83931,-0.56362,-0.86973,2.8034,2.6758,-1.4309,0.17608,-1.9155,0.68629,-1.8135,-0.64019,-0.48714,-0.51263,0.40564,1.2474,0.17607,-0.079008,0.12507,-0.64015,0.60976,0.35468,0.048525,-0.35956,-0.94622,0.30362,-0.28307,-0.53813,2.5993,-0.41066,-1.2269,-1.0483,-0.74211,-0.64013,-0.41057,2.0126,1.9361,0.048512,-1.7115,-0.74217,-1.2523,-0.58914,0.66078,-0.48708,-0.92074,-1.1503,2.3443,0.35461,0.15058,-0.92076,0.15059,0.78825,-0.71668,-0.74217,1.5025,2.6503,-0.35956,-3.0379,-1.4054,3.237,0.81377,-0.99727,-0.76771,-0.56362,-0.28306,0.76277,-0.23204,0.43118,0.58417,0.099534,-0.027962,0.71176,0.20159,0.99233,-0.56357,-0.30855,-0.28305,-0.51261,-0.1555,-0.23203,-0.33407,0.40563,0.40566,0.12507,-2.6298,1.7831,-0.97177,1.528,-1.0993,-1.2778,-0.64017,0.60971,0.35465,0.55873,0.27815,0.099564,0.048494,0.35463,0.43118,-0.64011,1.477,0.76277,-1.2269,-0.84426,-0.71672,-1.0228,1.0434,0.48218,0.6097,-1.7115,-1.2523,0.20163,1.6045,-0.38506,-0.99727,-0.4871,1.8341,1.8851,0.02301,-0.13,-0.232,-0.89524,-1.2778,0.48218,0.2016,0.2781,0.66072,-0.84425,-0.027987,-0.02798,-0.53812,-0.15548,-1.6349,0.50771,3.8237,-0.33406,-0.07899,0.15054,0.02301,-0.002503,-1.0228,-0.89521,-0.46159,-0.002443,0.71174,-0.25754,-0.20653,-0.58914,3.5431,-1.4054,0.91582,-1.635,0.2526,-0.38508,0.53321,-0.74217,-0.81871,-0.23202,-0.28303,0.15056,1.9106,-0.33408,-0.71665,-0.41058,0.074038,0.86482,0.2271,-0.20654,-0.28308,-0.58917,1.8851,0.78828,-0.71666,-2.1451,-2.8848,5.1501,2.3187,-1.6095,-0.51263,-1.6859,-1.1504,0.074033,-1.2268,-1.0993,3.2115,0.22708,0.27811,0.40568,-0.1045,-0.76771,0.30364,0.25265,0.023047,0.20158,-0.94625,0.38016,0.25261,-0.94626,1.2729,0.81378,-0.51263,-1.3034,-1.0738,-1.3034,2.8289,0.1761,-0.56358,-1.5584,1.2474,-0.76774,-0.07899,0.78824,-0.12998,0.58421,-0.56365,1.3239,-1.6095,-0.6657,0.25256,0.50769,2.0382,-1.788,-0.69115,0.30368,0.53321,-0.30858,0.35464,0.023047,-1.0483,-1.5839,-0.69119,1.5024,2.9564,0.81376,-0.86973,-0.66565,-1.0993,-1.5584,-1.6349,4.5124,0.43118,-1.6094,-0.76769,-0.13001,-0.81872,0.30363,0.43115,-0.4361,0.68624,-0.46163,-0.027993,0.074087,3.033,-0.002491,-1.992,1.1199,-1.0737,-0.89523,-0.43616,0.17601,1.4259,0.074057,-0.8952,-0.79319,-0.41061,-0.43612,1.9617,-0.46162,0.40566,-0.25753,-0.79316,1.0943,-0.30858,-1.0228,0.63521,0.12509,-1.3288,0.074087,0.099564,-1.4564,0.9668,0.96682,-1.3799,0.83933,-0.51262,-0.18102,-0.0535,0.2271,1.6045,-1.6605,1.2219,-1.1248,-0.7932,0.27809,-0.35959,-0.35956,-0.053439,0.66075,0.81379,1.9616,-0.33409,-0.28306,-0.4361,-0.053482,-0.53815,-0.76772,-0.30854,-0.51263,0.81379,0.55869,-0.43606,0.81383,0.40564,-0.30856,-0.23204,0.0485,0.12505,-0.002472,0.27805,0.5332
-0.30856,-0.15551,-0.10453,0.048567,0.023054,0.32911,0.023059,-0.18101,0.12505,-0.10449,-0.10449,-0.2575,0.25254,0.30358,0.074075,-0.18097,-0.078947,-0.027962,0.15057,0.048543,-0.002479,-0.027969,-0.0535,0.023035,0.023054,-0.027969,0.20159,0.12507,0.023035,-0.20652,-0.20653,-0.12999,-0.12998,0.048549,-0.027969,0.12507,-0.078947,0.35462,0.30358,-0.18101,-0.25753,-0.20649,-0.283,-0.053482,0.63509,0.074051,-0.078966,-0.20648,-0.002443,-0.002485,-0.027974,-0.053464,-0.1045,0.023023,-0.053488,0.099577,0.2526,0.35465,0.25259,-0.41059,-0.053488,-0.23202,-0.25754,-0.079008,0.1761,-0.027944,0.50769,0.27811,-0.48711,-0.66563,0.22708,0.073989,-0.28304,-0.10447,-0.43609,-0.12999,2.8544,0.58421,-0.078984,-0.84421,-1.1248,-1.3288,-0.38511,0.073971,0.09957,0.27815,0.35463,0.099588,0.35464,0.17609,0.074075,0.023047,0.023023,-0.1045,-0.078972,-0.30856,-0.23205,1.2219,-0.20652,-0.181,-0.56365,-0.38509,-0.20653,-0.13002,-0.078984,-0.18098,0.73726,0.099552,0.50769,-0.23202,-0.38505,-0.46161,0.96683,-0.25751,0.60955,-0.027993,-0.20647,-0.283,-0.12999,-0.002467,-0.1045,-0.12998,-0.18103,0.20156,0.89029,0.73724,-0.46158,-0.28305,-0.28305,-0.38509,-0.1045,-0.10449,0.09957,0.074069,0.15059,0.048561,0.09954,0.15057,0.15059,-0.02795,-0.20652,-0.33404,-0.20653,0.55863,0.81379,-0.25753,-0.61462,-0.1045,0.023047,0.023029,-0.10449,-0.027993,0.048531,0.099577,0.12507,0.099546,0.17607,0.023059,-0.053458,-0.002467,-0.23202,-0.20648,0.5331,0.20155,-0.25751,-0.18099,-0.33403,-0.12999,0.71175,0.074038,-0.18102,0.074069,-0.30855,0.35464,0.50768,-0.35957,-0.46159,-0.002467,0.074038,-0.18098,0.074051,0.22707,-0.002461,-0.10446,0.074062,-0.23205,0.66075,0.48219,0.45665,-0.20652,-0.41058,-0.81871,-0.53815,-0.33405,-0.027974,-0.053476,-0.02795,0.20159,0.38013,0.1761,-0.027969,0.023023,-0.027974,-0.002467,0.17607,0.099564,0.25261,-0.027993,-0.4106,0.35464,0.17614,0.048531,0.022956,-0.38508,-0.46154,-0.33404,-0.20653,0.35464,0.45666,-0.23201,-0.13001,-0.15551,-0.18103,-0.002485,0.074069,0.91581,-0.1555,-0.33405,0.074038,-0.18101,-0.15549,-0.18104,-0.43609,-0.18101,0.60973,-0.027987,-0.15551,0.023054,-0.28298,-0.43604,-0.2065,0.30358,0.40557,0.55863,0.38006,0.27805,0.22707,0.048531,-0.15548,-0.12998,-0.20649,-0.30849,-0.33401,-0.30851,-0.12993,-0.436,0.76272,0.048506,-0.28304,-0.38503,0.074002,-0.027993,0.15056,0.099564,0.09954,0.94128,-0.079021,-0.027974,0.048518,-0.41059,-0.002467,0.099564,0.25262,-0.30855,-0.18101,0.023065,0.27811,0.099564,-0.23201,-0.10452,-0.13001,0.023035,0.023035,-0.13001,0.12507,-0.053488,-0.23201,0.43116,0.15056,-0.51261,0.89031,-0.027987,-0.25753,-0.25754,-0.1555,-0.15549,-0.13,-0.13001,0.71176,-0.002485,-0.10449,-0.15551,-0.027993,-0.053464,-0.12994,0.023035,0.30354,-0.4106,0.68627,0.22716,-0.20653,-0.13001,-0.20653,-0.25757,-0.002461,-0.079002,-0.28306,0.68625,0.17607,-0.25754,-0.30854,0.22711,-0.13003,-0.18103,-0.38508,0.023029,0.94131,1.1709,-0.3851,-0.51262,-0.48711,-0.46162,-0.35957,-0.33407,0.50766,1.0434,-0.079002,-0.28303,-0.15551,-0.05347,0.17609,-0.15551,-0.25753,-0.38509,1.1199,-0.002467,-0.23204,-0.053464,-0.10449,-0.002497,-0.10451,-0.15549,0.15059,0.074051,-0.283,0.048543,0.32904,0.074051,-0.20649,0.099577,0.25265,-0.33406,-0.13004,-0.25753,0.12507,0.074038,-0.10449,-0.56364,1.9106,0.074069,-0.3851,-0.4361,-0.56361,-0.15553,0.17609,-0.181,0.074038,0.17607,0.15059,-0.10451,-0.078984,-0.10449,-0.027987,0.22709,0.17611,0.32913,-0.25756,-0.13,-0.15552,-0.15554,0.15057,0.15059,-0.33407,-0.13002,0.15059,0.25263,0.023035,0.023041,-0.027993,-0.1045,-0.078977,-0.20652,-0.027993,-0.10449,0.099583,0.25263,-0.38508,1.2219,-0.4106,-0.027962,-0.41059,-0.25754,-0.28303,-0.002472,-0.13,-0.05347,0.048536,0.023041,-0.027969,1.1709,-0.10447,-0.23203,-0.23202,-0.3595,0.43107,0.25257,-0.053439,-0.181,-0.12998,-0.07899,0.17607,-0.10449,-0.002503,-0.18101,0.074051,0.12505,-0.18101,0.73726,0.074075,-0.1045,-0.028018,-0.30856,-0.28302,-0.12998,0.074051,-0.05347,0.099564,0.048536,0.15058,0.25263,0.17609,-0.002485,-0.20654,-0.28304,-0.13,-0.30856,-0.28305,0.58421,1.2219,0.38016,0.023047,-0.69119,-0.56365,-0.64014,-0.13001,0.074038,0.15058,0.048555,0.074038,0.38016,0.55872,-0.1045,-0.30855,-0.41055,0.68625,0.60959,-0.053513,-0.20652,-0.25751,-0.33404,-0.1045,-0.053458,-0.02798,-0.002479,0.023047,0.048543,0.2016,0.048561,0.074038,-0.002467,-0.078996,-0.053482,-0.181,0.048536,0.074075,0.048549,-0.10449,0.023054,-0.027993,0.32913,-0.10449,-0.15554,-0.51262,0.78828,-0.20654,0.30363,0.96685,-0.3596,-0.53813,-0.8442,-0.48712,-0.15551,0.27814,-0.1045,0.58419,-0.053476,-0.027956,-0.13002,-0.30854,0.35464,0.12505,-0.027969,-0.25749,0.45657,0.074013,-0.078953,-0.181,-0.078966,0.023059,-0.13001,-0.1045,-0.078984,-0.13001,0.074051,0.20157,-0.002461,0.023035,-0.002467,-0.027956,-0.23204,0.68623,-0.053495,-0.79319,0.53321,-0.51263,-0.027974,-0.15549,0.81378,0.17609,-0.10452,-0.13,-0.28303,-0.4361,-0.28305,0.048536,0.15059,0.12508,-0.25754,1.2474,0.50766,-0.1045,-0.8187,-0.43612,-0.4361,0.023047,0.15057,0.074051,0.023059,0.66072,-0.10452,-0.13,-0.027969,-0.002485,-0.15549,0.17609,-0.23198,0.32905,0.32907,-0.2065,-0.46155,0.5332,-0.25754,-0.30854,-0.18104,-0.027974,0.2271,0.20157,-0.10448,0.023035,-0.30857,0.73728,0.2781,-0.35957,-0.4871,-0.078996,-0.002472,0.023059,-0.027974,0.074069,-0.35957,0.94131,-0.30854,-0.15553,0.27812,-0.053488,-0.13002,0.15059,0.38014,-0.13002,-0.35956,-0.23204,-0.027993,-0.078972,-0.25754,0.074057,0.32916,0.60973,0.048531,-0.002467,-0.51255,0.099466,0.074002,-0.23202,-0.33404,0.17614,0.099559,-0.027974,-0.027962,0.048549,-0.027993,-0.078972,0.023035,-0.079014,0.074051,-0.002467,-0.10449,0.074057,0.20156,0.12506,-0.05347,-0.13,-0.078984,-0.181,0.68626,-0.2065,0.22701,0.099552,-0.23201,-0.53803,-0.30851,0.12502,0.40558,0.17605,-0.51257,-0.30851,-0.20652,2.1146,-0.56356,-1.3287,-0.25767,0.20158,-0.28302,1.63,-1.2779,0.78809,-0.027956,0.60984,-1.2265,-1.5074,-0.10474,-0.48725,2.1912,-0.53783,-1.0992,-1.2017,4.5119,4.5375,-2.68,-1.6089,-2.8847,-3.089,-7.2468,2.9051,11.986,3.7471,-1.7369,-4.1855,7.4715,-5.4356,-4.2624,-1.3799,-5.7925,-0.18115,14.128,1.5788,-2.4511,-7.7311,6.1451,-0.46157,-0.97178,2.6248,2.6505,-4.5937,-2.2215,-3.0634,8.3639,7.7772,-4.1348,-2.2982,-4.1602,-1.1758,-0.53805,-4.7469,0.9412,0.76277,-0.12997,-1.0483,4.3848,-3.14,2.1656,-2.0176,0.12513,6.7573,0.7119,-4.6193,-4.4408,-4.8234,-0.84425,-2.0178,0.86436,7.3946,2.3953,0.96698,-2.4511,-3.1143,2.3188,1.0179,-0.66553,-2.9356,5.0992,4.895,-3.7778,-4.7726,1.7574,-5.4612,4.2572,0.99227,-0.13004,-0.76771,2.6503,9.0018,3.7472,0.40571,-4.5682,-3.1908,-0.18092,-2.1451,-2.2727,-2.5788,0.86467,4.6399,3.6961,-1.2778,2.829,0.58427,-2.2726,-2.2472,-3.3695,-1.5585,1.732,1.2219,0.40557,2.1147,-0.92067,0.023114,-0.20665,8.8997,-2.1451,-2.3236,-2.7317,-2.4512,-1.4309,-2.0941,-3.0123,4.1554,-1.2012,-2.9868,4.7929,-3.6757,-0.89535,7.1396,-1.1504,0.94128,3.5431,-1.3799,-0.43604,-3.599,-5.7161,-1.6349,1.9872,2.7014,-2.7573,-0.43616,7.9304,0.12504,-3.4716,-2.8339,1.1454,-2.6297,-1.6603,-0.18098,1.1198,0.27808,0.89023,1.8341,-0.15546,0.048518,0.38011,1.1964,0.20144,-0.97186,1.0689,-3.0122,-4.0579,2.3698,5.9663,3.5175,2.5993,-2.1961,-4.4663,-1.1759,-3.344,2.1402,-0.89524,-1.5074,2.7524,-2.5277,0.023078,1.2474,5.6857,2.3953,0.4567,-2.5022,-1.6094,-2.0941,-1.584,0.7117,0.6352,-2.9869,7.2672,0.15059,-0.89519,-2.7828,-1.3033,-1.8133,-0.56368,0.17594,-0.76785,1.3238,1.732,1.2219,1.8086,-1.7879,-2.196,0.12514,-0.64008,-1.5074,-1.0738,6.298,-0.46163,0.023017,-2.9869,-3.446,0.6862,-0.25757,5.4052,-0.79328,-5.6397,4.8185,5.2777,-4.058,-0.51252,-2.9104,-1.8391,0.86466,1.4259,0.074057,-0.38505,2.2422,0.35464,1.528,-0.9717,-0.53812,-1.2778,-0.89518,4.6655,0.048494,-0.46165,-1.9155,-2.0685,0.55877,-1.0483,0.25253,-1.0994,0.99227,1.4259,2.5738,1.9106,0.40564,-3.2929,-4.6959,2.4208,0.17607,1.579,-1.2523,-2.2216,2.1912,-1.5075,-1.9666,-1.7625,6.298,2.9309,-0.64012,-1.4819,-1.6859,-1.992,1.834,2.4207,-0.38514,-0.51267,-1.1758,0.17606,0.53319,-0.53811,-0.76767,-1.2012,-0.35954,1.9872,1.222,-0.74224,1.4004,-0.33412,0.12497,-0.5381,-2.9358,-3.446,3.0584,1.8596,-1.0738,1.0178,-0.79319,0.25264,-2.7572,-3.4205,9.0018,-1.4564,0.43115,-1.2013,-0.92073,-0.51264,-4.6959,-1.5584,-1.4309,0.20158,2.4718,4.9715,-0.76772,-7.9099,2.6758,14.18,-3.446,-3.2163,-4.7214,-4.3388,0.81378,3.237,3.3645,-1.3288,-3.9816,2.3442,-0.71668,-0.58913,0.50768,-1.2523,1.8085,3.441,0.17606,-0.25754,-1.788,-0.15556,-1.584,-2.0686,-1.6859,-2.094,6.6295,-1.3799,2.1911,3.8492,-0.30856,-2.3492,-1.6605,-1.9666,-3.446,-1.992,4.2574,-0.79319,0.78824,-1.3799,1.7575,2.3697,0.99237,1.4515,-2.3747,-1.686,-3.8542,0.27812,8.8742,1.0944,-0.51254,-1.5584,-1.3289,-1.839,-0.79323,0.60971,-3.8286,3.6451,3.39,-2.0176,3.237,-0.94627,-1.839,1.4515,-1.8134,-2.2471,-2.4002,0.73723,1.5025,-0.43606,1.579,2.4207,-1.8645,-0.9972,-0.64009,0.6097,-2.3237,3.2115,0.81375,-0.84427,1.1454,-2.1451,-0.66561,-6.1753,10.762,0.53317,0.48218,-2.6553,-2.7573,-2.0175,-1.1504,-1.2778,0.25262,1.1708,1.2729,0.09957,-0.58919,4.4359,-3.5481,0.78834,3.0841,-0.15544,-1.8135,-1.5585,-2.2472,0.40561,0.35457,-0.48714,0.1761,1.0179,-0.20648,-2.7063,6.6806,-0.18102,-2.7573,-2.8849,0.71179,2.8799,-0.84419,-0.23199,1.7831,-1.9155,-2.4768,-1.5074,-1.0483,-1.839,5.2776,4.5378,-1.0994,-2.7573,0.074093,-0.51261,-2.0431,0.22713,-0.20649,0.048555,0.50775,-0.10448,-0.97173,0.58416,0.2526,0.15058,3.0074,-3.6245,1.4515,0.6352,2.2932,1.3495,-2.5788,-1.8901,-2.6808,-3.293,-2.1706,5.3031,1.8596,0.7118,-0.97177,-0.58914,-0.18101,0.04858,-0.79321,-0.84424,2.7014,0.20163,-1.2013,-0.2065,0.48214,-1.5075,0.73727,-0.13001,-1.1248,4.4103,-0.86977,-3.0124,3.2115,-2.1706,-0.79317,-1.5329,6.655,-1.8646,-0.92079,2.9309,0.58424,-2.4001,-0.053427,0.99241,1.0943,0.12501,-0.79326,1.2729,-1.2779,0.89031,-0.30854,-0.43609,0.38014,2.8289,-1.0738,-0.35953,0.17607,-1.3034,-2.4257,0.73721,-1.4309,0.15066,-0.58912,-0.1045,0.73718,0.81371,1.3239,-0.69115,-1.5584,0.45669,2.2167,1.5535,-1.4565,-0.64017,-1.941,-0.79319,-1.1757,-0.078977,-0.13004,0.53316,2.2422,-0.86971,1.3239,-0.79321,-1.2013,-1.9155,0.58418,0.89024,2.9054,0.20158,-2.6552,-1.839,0.66075,-0.43612,1.1453,-0.74216,-1.2013,-0.46159,0.12507,2.0127,-0.5891,-4.5428,4.4613,1.2474,0.45671,-1.0993,-1.2778,-0.28308,-0.79326,-0.76769,2.8289,1.375,1.5025,-0.23202,-2.5788,-3.2164,2.1402,-1.0228,-0.8443,2.2166,-0.69119,0.48218,1.681,-0.35957,-1.5839,-0.18097,0.074111,1.5535,0.81379,-2.1451,-0.12998,-0.81873,-0.7167,-1.1248,0.53317,-0.23205,-2.0176,2.5738,0.66075,-2.5022,2.5483,-0.30858,-0.89522,0.7118,-1.2012,1.528,-0.25762,-1.1504,1.5535,0.73726,-0.53813,-0.33407,-0.71669,-0.81869,0.60973,0.9413,-0.07899,0.30364,-0.28306,-1.0993,0.8648,-0.28306,-0.97177,-0.69117,-0.46159,-0.002472,0.17607,-0.13002,-0.002472,-1.0228,5.6857,-1.4819,0.60971,-0.002436,-1.6604,-1.3799,-1.6095,-0.25756,0.63523,0.78825,-0.28306,-0.81873,-0.76769,0.20161,0.30364,3.6706,-2.4257,2.0382,-0.99726,-2.6298,2.1912,-1.3288,-0.84422,0.35461,-1.3799,2.9309,0.89031,-1.788,-0.10446,0.71173,-0.86975,-1.1503,-0.13002,3.1605,-1.1758,1.8596,-1.2778,-0.69111,-1.3034,0.15054,0.48209,0.58418,-1.4054,0.83931,2.1147,-0.38506,-1.0228,-0.61464,-0.61467,1.324,0.78829,-0.74221,-0.2065,0.1761,-1.1504,1.0944,1.9361,-0.25757,-1.2269,-0.99727,-1.737,1.8086,0.32915,-3.2419,4.9715,-0.86972,-0.48715,-1.1247,-1.8645,1.6811,-0.41062,-0.86974,1.1453,0.099564,-0.35952,2.0126,-0.6912,-0.38511,0.22711,-1.5329,0.94133,2.1657,-1.3544,-0.58909,2.6759,-0.46159,-1.7369,-2.2982,2.1401,0.43112,-0.20656,-1.9155,0.66074,-0.41054,1.3494,2.7779,-1.941,0.30356,-1.0228,-0.89523,-0.84419,-1.3798,0.78826,2.0636,0.60969,-1.3289,-1.4309,8.3386,1.4005,-1.6604,-2.7318,-1.533,0.40559,-0.028029,-0.18106,0.60971,-0.28302,-0.20653,0.96683,-0.56359,-0.23198,1.4514,-0.51262,0.27816,-0.23202,-0.30856,1.0178,-0.86969,-0.61468,1.5535,-0.69118,-1.3798,-1.8135,0.43117,-0.84425,2.0892,2.2677,-2.4767,4.1808,-1.3288,-1.2268,-1.1248,-1.0228,-0.51267,0.048512,0.43115,0.6352,1.5535,-0.38505,-0.43607,-2.0686,1.477,5.2521,0.15055,-1.8645,-1.3798,-0.66562,0.86485,-1.788,-1.0228,-0.38514,0.3801,-0.28309,0.22708,0.45667,-0.00243,-0.053439,0.023047,0.30366,0.91581,-1.584,3.6196,0.40564,-1.6095,-1.5329,-0.71668,0.45667,0.68628,4.0278,-2.0941,-1.5839,-1.9156,0.17609,0.17612,-1.5584,-2.7573,3.0585,5.3542,0.71174,-0.71676,-1.9921,-0.86972,0.27815,-2.3747,0.9413,1.4005,1.2985,-2.0175,0.35464,-1.0483,-0.94628,-0.74221,-0.078947,1.2219,-0.38504,-0.35958,0.30363,0.58416,-0.33413,-1.3799,1.9361,0.53319,-1.3798,2.5739,-1.5584,-1.2778,0.53312,-1.8646,-0.76771,1.63,1.4515,-0.64015,-0.53812,-0.43607,-0.81871,-0.053458,0.81379,-0.64015,-0.43607,1.5535,2.0636,0.45673,-2.3492,0.2526,2.8289,1.3749,-3.395,-1.2014,-0.3851,-1.3544,-2.2982,4.2063,-0.35956,1.0689,0.25262,-0.1555,-0.053446,-0.66563,-0.28305,-0.10451,0.81378,0.38016,-0.56364,0.81375,0.12507,-0.18104,-0.99725,1.6556,-0.053427,-1.4309,-1.737,3.5941,1.375,-1.9156,1.1454,-0.41058,-0.71662,0.048536,-0.64017,-0.41061,-0.027956,0.38016,1.0943,0.12508,0.78831,0.30364,-0.3851,1.2984,-1.3033,-2.4001,1.0178,0.89026,0.60967,0.53315,-0.81873,-0.43607,0.76278,-1.3289,-0.02792,0.023035,0.023029,-0.53816,-0.81873,-0.078947,1.2474,1.2219,3.7472,-1.4309,-0.66568,-1.3033,-3.3949,2.0893,0.48215,-0.028085,-0.028078,-1.0994,-0.4106,0.35462,0.25259,0.20162,0.7118,-0.71665,-2.8848,3.3136,10.15,-0.94623,-2.8593,-2.9614,-2.5277,-1.4819,-0.7422,-0.28309,0.15053,1.579,1.3495,-0.61463,-0.35958,1.477,1.7575,-0.15548,-0.43607,0.53319,-0.13002,-0.56368,-1.3544,0.55872,-0.58914,0.63523,-0.94622,0.2526,-0.64017,-0.23204,-0.53813,-0.51262,1.375,0.78827,-1.0993,0.63524,-0.20652,-0.43611,0.32908,-2.0941,1.5535,2.6759,1.1454,-2.0176,-1.2269,-1.737,-1.2014,1.732,-0.89519,0.71184,-0.13001,-0.20656,0.48214,0.58419,-0.92075,0.71173,-0.66565,0.12511,-1.3799,2.2933,-0.3595,-1.3799,-0.84431,1.7575,1.1963,-0.48714,-0.58918,-0.23205,-0.46158,-0.18096,-0.56355,2.2677,-0.20654,-0.23203,0.25259,0.048549,-0.94625,-1.4309,1.4769,2.5738,-0.5891,0.25269,-0.46157,-1.5075,-1.533,1.2219,-0.8187,-1.1248,0.5842,0.53319,0.023059,-0.64016,-0.51265,0.20162,3.2626,-0.79318,-0.92074,-1.3799,-1.1249,3.0584,2.3952,-0.079002,-1.9155,-1.4309,-1.2523,-0.69111,-0.35953,-0.84415,-0.23201,0.91575,1.2729,1.0433,0.074038,-0.002472,-0.28303,-0.71668,-1.0993,1.1964,-1.2268,0.099637,-0.84425,3.6706,-0.28306,-1.584,-0.002454,-0.25756,0.83924,-1.0483,-1.1503,0.09957,-0.053476,0.023035,-0.4106,0.60972,1.8596,0.58422,0.20161,-0.30855,-0.48711,-0.74221,-0.66565,-0.64013,1.426,-0.25755,0.023023,4.1808,-1.1248,-2.0941,-1.482,-0.58918,-1.1503,-0.48717,-1.1758,2.982,0.4567,0.17607,1.9361,0.2526,-0.58916,-0.20651,0.53324,0.17611,-0.79322,-0.25752,-1.3034,2.2677,0.40563,1.7576,-0.10448,0.023139,-2.7317,-3.038,0.20148,-0.89531,-0.10453,5.0991,-0.71667,0.38011,0.023047,-0.25752,-0.7677,1.0179,0.58424,-0.078966,-0.10447,0.023023,-0.1045,-0.078984,-0.23202,-0.25754,-0.027993,0.38014,-0.71668,-0.41063,-1.0483,0.73723,7.5478,-1.1503,-3.0123,0.3291,-2.9613,-1.9154,-0.41057,-0.66574,0.022968,1.4259,-0.28306,0.78829,2.4208,0.04858,-0.33409,0.86475,-0.12996,-0.5126,-1.0737,-0.79323,6.0939,-0.66567,-1.2014,-1.5585,-1.0993,-0.58916,-0.46162,0.074062,-0.20649,-1.584,0.99232,6.0939,3.5432,-2.6552,-2.8848,-2.2727,-1.0738,0.30358,0.09954,0.48218,0.20156,1.273,1.5025,-1.3289,0.50768,0.32919,-1.9155,1.426,-0.4106,-0.13004,-0.20658,-0.41061,-1.4309,-2.4002,3.0585,3.186,-0.89527,-0.053482,-0.46156,-0.10448,-1.2523,-0.71667,0.94131,-0.64019,3.3391,-0.5891,-1.533,0.43111,-0.64023,-0.25754,-0.41054,-1.941,-1.3799,2.982,3.1094,-0.48714,-1.0228,-1.2778,-1.2524,-1.0993,-0.027974,0.99234,1.426,-0.76766,-0.81874,0.023023,0.048525,0.048567,0.35465,-0.61463,-0.33406,-0.66562,-0.079008,0.30358,0.22705,-0.30856,-0.38505,-0.027969,0.68625,1.6811,2.7524,-1.1248,-0.76772,0.35464,-1.5329,-2.4767,0.48219,1.732,0.40565,-1.686,-2.6298,-0.89521,6.706,-1.533,0.48221,-0.64014,3.4666,-2.1451,-0.6912,0.94131,-1.6605,0.40565,-2.4257,-0.20651,-0.25754,-0.86972,-1.0228,1.2984,0.12513,-0.079008,0.63525,1.0944,-0.9973,0.45668,-0.30854,-1.0482,2.4718,-1.3544,-2.0176,1.4004,0.60968,-0.35961,-0.38506,-1.0738,0.94136,-1.3288,-0.46157,-0.2321,0.71175,1.7831,0.32917,-0.86961,-1.1758,-2.6554,3.441,0.176,-1.9156,0.89029,-0.027956,3.7982,-1.4309,-1.0228,-1.992,-0.86971,0.71175,0.86479,2.0636,-1.4565,1.1964,0.71178,-0.5126,-1.5839,-0.92076,1.528,-0.13004,0.20159,0.22706,-0.43614,0.35462,-0.10445,0.83934,-0.99726,1.1964,1.4515,0.15059,-0.3341,-1.4564,-1.4819,-1.7115,-1.4564,1.3495,0.38014,0.99231,0.12499,-2.0176,6.7315,-0.28303,-1.2778,-1.3544,-1.1248,1.1709,-0.4871,-1.9155,0.6352,0.89029,0.32913,-0.94625,-2.4512,1.7321,2.7014,-0.92078,-0.74221,-0.86977,-0.51263,-0.25753,-0.53814,2.5483,-0.053513,-0.30853,0.50771,-0.81875,-0.92073,0.17609,-0.23198,0.023103,0.73721,-1.4819,1.1199,-0.53815,-1.7369,-0.4616,1.9361,0.89027,0.40563,0.32917,-0.30851,-0.89527,-0.61467,-1.1503,-0.002448,-0.28302,-1.2778,0.3802,4.1298,3.4411,-0.053531,-0.64015,-1.3799,-1.635,-1.6095,1.375,-0.20647,-1.4054,-0.94624,1.783,1.0433,1.0944,0.17612,-0.92077,-0.76772,-1.3033,-0.79318,1.5535,-0.028005,0.22705,1.1964,-0.64014,0.27812,-0.92066,1.1964,0.55864,-0.053495,-1.584,-1.737,1.9871,-0.41055,-1.7369,2.9054,-0.64012,1.6555,-0.6147,-0.18103,-1.3544,3.3135,-0.51262,1.7321,0.32918,-2.1196,0.15064,0.20159,0.35459,-0.74226,0.32908,0.20157,-0.30856,-0.58916,2.9564,-0.84421,1.9361,-0.61466,-0.99721,-0.43608,-0.28308,-0.86972,-0.64015,0.45664,1.9361,-0.58916,-0.38513,-0.28302,-0.92075,0.12507,0.48219,-2.1196,1.4004,0.17606,2.4718,-0.25755,0.86482,-1.6605,-0.61467,-0.23203,0.73727,0.43116,-0.79322,-0.41057,-0.078959,0.40565,0.30363,-0.20656,-0.61465,1.4005,1.579,-1.6094,1.324,0.43114,-0.79324,-1.635,-1.9666,-0.41059,0.53323,-0.3595,-0.81872,-0.13005,1.783,-0.4361,2.6248,-1.3544,-0.35954,1.4515,-0.81866,-0.10451,-1.8135,-2.1962,1.1199,5.1246,2.1147,-0.4871,-2.0686,-1.8645,-0.69121,-0.89527,-1.3544,1.9616,3.6962,-0.35957,-0.74217,-1.3799,0.58421,1.579,1.4515,-0.58916,-1.1758,-2.043,-0.79316,3.4411,0.45664,-0.027987,-1.737,0.22709,0.43115,-1.5584,-0.078977,-0.46157,0.96688,1.4005,0.66072,-0.58913,-0.3341,0.074013,-0.56363,1.8341,-0.23202,0.02309,-0.38506,-1.5329,-0.61463,1.4259,1.3494,0.89029,-1.788,-0.99729,4.793,-1.9921,0.15062,-0.23202,-2.4002,2.4718,0.15057,0.99232,-0.33407,-0.64015,-1.0483,-1.1503,-1.0738,1.0178,-0.053464,2.4208,0.40559,0.9923,-0.92074,0.38017,-0.18095,-0.5636,-0.25756,-2.2472,2.5738,-0.20649,0.22711,-1.4054,-0.41063,0.12507,0.048567,-1.2268,-0.69117,1.6555,-0.23203,1.7066,-1.0737,0.89029,-0.53818,0.176,-0.74226,-0.86973,0.1251,-1.4819,0.43121,0.25262,3.6451,-1.2268,-1.1503,-0.10453,-0.3341,-0.56362,-0.71666,1.5791,0.20164,-0.25756,-1.3034,-0.92072,1.6555,-0.74221,1.9106,0.43112,-0.48711,-0.30854,-1.0993,-1.9666,3.8492,2.6249,-1.0227,-2.8083,-3.1399,2.8289,2.9564,-1.1248,-3.0633,2.0127,-0.66559,-0.43616,-0.15563,0.20154,-0.51268,1.3494,0.048555,2.0382,0.20161,-0.89521,1.579,-0.23205,-2.0175,-1.6605,0.96685,0.63521,0.96682,-1.1248,-0.15548,0.048531,0.91576,-0.15555,-0.76772,0.25263,-0.33403,0.023054,0.25259,0.43112,0.25259,-1.4819,-1.5074,3.4921,1.7576,-1.4564,-2.5023,0.76279,-1.4564,-1.4054,3.7217,1.7066,-0.84421,-1.1503,-0.89525,-1.7115,2.7268,1.0433,-0.30855,0.27814,-0.23203,-0.92074,-1.3799,1.477,-0.053476,-0.25754,-1.0738,0.60971,6.1959,-0.97176,-1.2524,-1.0737,-2.1961,-0.23197,-0.028018,-0.13007,1.0433,0.9158,-1.2268,0.12506,-0.30855,0.71179,-0.64011,-1.6094,1.4515,3.6706,-0.35959,0.22707,-1.9666,-2.4002,0.99241,-1.1758,0.17604,1.9361,-0.89524,-0.89522,-1.4309,-1.5073,0.023059,2.3442,1.0688,-1.0483,2.7013,-1.0738,-0.92074,2.1402,-0.12999,-2.1706,1.0178,-0.13,-1.6094,0.58423,-0.69119,-0.078977,-1.3289,0.45667,1.1964,0.2781,-0.86972,-0.13002,2.2677,-1.839,-0.15549,2.4462,-0.43616,-2.3492,-1.5584,-0.4361,-1.0738,2.8289,0.8648,3.2626,-1.2778,-1.4309,0.048598,-1.4309,-0.4871,-0.64016,-0.76775,-0.13005,2.4463,1.63,2.4718,-0.12999,-0.35956,-1.839,-1.3288,6.2979,-1.4819,-2.2982,-0.4361,-0.69119,-1.9921,-0.84421,1.9106,2.9309,5.1245,-1.686,-0.79318,-0.25757,-1.5585,-1.737,-0.86971,8.7722,3.033,-2.7318,-3.4459,-2.4767,-1.4309,-0.76772,-1.8645,4.3593,2.1146,1.375,0.4312,-1.1503,-0.15548,0.22714,1.2729,-3.1654,0.91588,2.8544,1.1454,-2.2216,-2.3747,-1.0993,-0.89524,0.27807,-0.002491,-0.027974,0.50769,0.8138,0.074057,0.96684,-1.2778,1.8596,0.20164,-0.61464,-0.97179,-0.7677,1.63,1.2474,-0.15549,-0.64018,-3.0124,9.3333,-0.13006,-3.0124,-1.6605,-1.2524,-1.5584,1.1964,0.17614,0.17619,0.50765,1.0943,-0.13004,-1.1249,-0.7167,0.38014,4.4869,0.17612,-1.3543,-2.6297,0.55865,0.96678,0.40561,-0.9463,0.17607,-0.48708,-0.69113,0.12509,-1.5329,0.55873,2.3442,0.43117,-0.94621,-0.9718,0.022992,-0.13004,1.8086,-0.12999,0.63531,-0.10445,-0.33409,0.53318
0.86482,-0.053488,-0.33405,-0.30854,-0.1045,-0.30855,-0.30855,-0.15553,0.12507,0.83928,0.048531,-0.25753,-0.002467,-0.33408,-0.35952,0.32909,0.17599,-0.35954,-0.51259,1.8851,-0.79316,1.4515,-0.53814,-0.33408,-0.74218,-0.48713,-0.25756,-0.027974,0.32912,0.09957,0.2271,0.2271,0.17611,0.53318,-0.43609,-0.15551,-0.002472,1.2474,0.2526,-0.41058,-0.35959,-0.43607,-0.15553,-0.43609,-0.23204,0.09954,0.1506,0.66073,0.023023,-0.18102,-0.15552,0.023047,-0.027993,0.81378,-0.25753,-0.15553,0.60972,-0.61464,-0.25756,-0.027974,-0.30854,0.099559,0.023029,0.074062,-0.10449,-0.002472,0.023035,-0.30849,0.17603,-0.15559,0.04858,1.2474,-0.078972,0.76278,-0.86971,-0.48712,-0.74221,-0.51264,0.074057,-0.30857,-0.079008,0.20159,0.27812,0.023059,0.048555,0.099546,0.15057,-0.078972,-0.23203,-0.13001,0.60972,0.43118,1.0689,-0.33406,-0.56365,-0.71668,-0.92073,0.50769,-0.10452,-0.10449,-0.078984,0.12505,0.20159,-0.13,0.17607,0.2526,0.15058,-0.28303,0.58419,0.43117,-0.33404,-0.20652,-0.15551,-0.18101,-0.23202,-0.30855,-0.23204,-0.46159,1.579,-0.13001,-0.28305,-0.71666,1.1199,-0.1045,-0.41058,-0.43612,0.94131,0.12509,-0.18102,-0.35956,-0.51262,-0.43609,-0.10448,1.2219,0.8903,-0.41059,-0.46162,-0.23202,-0.58915,1.7831,-0.41058,-0.23206,-0.43609,-0.002448,0.048536,-0.15551,-0.20652,-0.15551,0.91581,0.38015,0.12507,-0.18104,-0.33407,-0.33405,0.78827,-0.20655,-0.53812,-0.33407,0.40566,-0.33405,-0.18101,0.12508,-0.20652,0.25262,-0.12999,-0.13002,0.023047,-0.23202,0.35464,0.35464,-0.027987,-0.4871,-0.18102,-0.18101,1.6555,-0.13002,-0.002479,-0.33406,-0.23203,-0.4361,-0.38506,0.048549,0.17609,-0.23203,0.99234,-0.05347,-0.51265,-0.53813,-0.7932,0.66074,-0.38508,1.1709,0.5842,-0.3851,-0.35958,-0.28303,-0.20653,-0.13001,0.12507,-0.66565,1.2474,0.53318,0.30361,-0.51261,-0.51262,-0.13002,-0.38508,-0.18101,0.099559,0.15056,0.074062,-0.15548,-0.35956,0.60971,0.074057,0.17609,0.048549,-0.3851,-0.23204,-0.078977,-0.1555,-0.30856,0.12508,0.27814,-0.61464,0.8393,-0.28306,-0.61465,-0.25755,-0.027987,-0.23203,-0.05347,-0.81869,2.2932,0.35465,-0.4871,-0.15552,-0.027993,-0.13,-0.33407,-0.002479,-0.002448,-0.30855,-0.23204,-0.181,0.074062,0.023029,1.2474,-0.078996,-0.078972,0.023047,-0.002491,-0.15552,-0.25754,-0.15551,-0.002485,-0.1045,-0.25753,-0.12999,0.43117,0.40564,0.074057,-0.23202,-0.23202,-0.23204,-0.33406,-0.35959,1.0178,0.074062,-0.53811,-0.38508,0.023029,1.681,-0.64016,0.12509,-0.81872,0.074062,0.048536,-0.35957,-0.23203,1.1964,0.074057,-0.002479,-0.66567,-0.18101,0.48218,0.78828,-0.4106,-0.41058,0.86481,-0.15551,-0.13001,-0.20653,-0.5126,0.71175,-0.027998,-0.20653,-0.23204,0.12506,0.20159,0.048561,0.048531,-0.053476,-0.181,0.023035,0.074044,0.074051,-0.25753,-0.002467,0.45668,0.30367,-0.28313,0.40559,-0.053451,-0.23198,-0.38505,-0.23203,-0.33404,-0.53812,0.58415,0.27809,-0.00243,-0.13,0.15055,-0.079014,-0.43609,1.0944,0.09957,0.68624,-0.33407,-1.0993,-0.1045,0.76275,1.2219,-0.74217,-0.66568,-0.53813,-0.20653,-0.18101,-0.002461,0.32914,0.45667,0.60973,-0.078996,-0.20652,0.48217,-0.43609,0.17609,0.22711,0.2271,-0.33407,-0.41057,-0.13,-0.1045,0.048561,0.074033,-0.1045,0.15058,0.30361,-0.25746,0.3291,0.43107,-0.002461,-0.18098,-0.30851,-0.1045,-0.23203,-0.15549,-0.28307,0.8393,0.60969,-0.64015,1.5025,-0.97177,-0.61465,-0.97178,0.048561,0.48219,1.3239,-0.18103,-0.58916,-0.56363,-0.35956,0.86477,0.66074,-0.38509,-0.28305,-0.1555,0.35465,0.20158,0.12506,0.099564,-0.10447,-0.002467,0.074062,0.099564,-0.05347,-0.13,0.02301,0.023047,-0.23201,0.43118,0.074038,-0.35957,-0.56364,-0.66569,0.63523,-0.5126,1.1199,-0.10452,-0.18103,-0.15551,0.074038,-0.25754,-0.20651,0.50769,0.38014,-0.027962,-0.15551,-0.1045,-0.1045,0.43116,-0.1045,-1.2268,1.2729,-0.20653,0.5842,-0.18102,-1.0228,0.099564,0.38016,0.73727,-0.51261,-0.51262,-0.4106,-0.10452,-0.35956,1.3239,0.048536,-0.002461,-0.02795,0.2271,-0.12999,-0.002472,-0.05347,-0.15552,-0.35959,0.89031,1.1199,-0.43609,-0.25754,-0.33406,-0.48709,-0.30856,0.20161,0.023035,-0.20653,-0.18101,-0.15553,0.58423,0.35462,0.023041,-0.23203,-0.078996,-0.48711,0.20159,0.71177,0.023023,-0.76768,0.35463,-0.4871,-0.58914,0.81378,0.25262,-0.41061,-0.48711,0.12507,0.48216,-0.38506,-0.28305,-0.56363,1.0178,-0.4106,1.9106,-0.33407,-0.48711,-0.46161,-0.38509,-0.20653,0.023035,0.074075,0.12507,-0.078972,0.023035,-0.053482,0.048549,0.023029,0.09957,0.1487,0.1487,0.048543,-0.027956,-0.002479,-0.181,0.45666,-0.18103,-0.078984,0.17609,0.71177,-0.30857,-0.76769,-0.38509,-0.58916,0.89031,-0.027962,0.023023,-0.002472,-0.18101,0.50766,1.4005,-0.002485,-0.23203,-0.58914,-0.33406,-0.41059,0.91581,-0.078977,-0.46161,-0.35958,-0.10449,0.023047,-0.002472,0.099564,0.30362,0.32913,-0.18101,-0.15549,-0.18102,0.048543,0.023054,0.048525,-0.15551,-0.13,-0.33409,1.2984,0.048543,-0.43609,-0.28303,-0.30856,-0.43609,0.73728,-0.13003,-0.053464,0.8393,0.023035,-0.58913,0.099564,-0.51262,0.50769,-0.18104,-0.15551,-0.33405,1.1199,0.15059,0.53319,-0.48713,-0.81871,0.27812,-0.079008,-0.33406,-0.30855,-0.079008,0.048567,0.15057,0.58419,-0.002448,-0.027969,-0.25754,-0.28303,0.15059,0.17609,-0.15548,-0.13002,-0.23201,0.20159,-0.23204,-0.30855,-0.027987,-0.18103,-0.28304,1.8341,-0.53813,-0.41058,-0.41059,-0.25754,-0.181,-0.053495,0.15057,0.048543,0.099564,0.20162,0.20158,0.12507,-0.13,0.22708,-0.25753,-0.20653,0.15057,-0.28305,0.96683,-0.07899,-0.69116,0.048531,-0.28305,-0.35956,-0.48711,-0.23204,-0.12999,-0.18101,0.15057,0.38016,0.023029,0.09957,1.2729,-0.23205,-0.28304,-0.43609,-0.28306,0.20161,0.25262,-0.18104,-0.12999,-0.053495,-0.23204,-0.30855,-0.15551,0.94138,0.27806,0.94125,-0.51261,-0.38505,-0.35954,-0.30855,0.12507,-0.07899,-0.61466,0.9413,1.2474,-0.1045,-1.6604,-0.35961,0.45667,2.3187,-0.33404,-0.64017,-1.1503,0.48219,-4.0327,9.2058,-1.5584,-0.94624,-1.5329,-0.35958,-0.33412,-0.64015,-4.4663,-0.64012,14.818,1.4515,-4.9765,-2.1962,0.32913,-3.7776,-1.8134,-0.7932,4.4614,1.2219,-1.4054,0.022992,-0.99731,-1.6605,2.3952,-4.4408,1.2221,3.7473,-1.4053,4.997,-4.9766,2.2676,0.38016,0.78835,-6.5834,-4.0326,7.4204,-0.66565,-1.5585,-1.8646,3.492,6.6294,-5.0021,15.557,6.5529,-6.8384,-8.2922,-4.1856,1.8085,-0.53818,-0.05339,-4.4662,-4.7215,14.078,1.5278,3.4154,-0.8953,-2.1452,-0.71666,-2.6806,4.4105,-3.7775,-1.1248,-1.5584,8.3641,-1.8899,-1.635,-2.5789,-1.7625,-3.5735,2.5993,8.2365,-0.8698,1.4004,0.12501,-5.9968,-0.58915,8.5426,-4.3642,2.0382,1.4515,-3.9816,-3.2419,1.0689,-2.4511,-1.7625,-0.79319,-2.2982,3.492,1.6044,1.6299,-2.0686,-1.1758,12.471,-2.8592,-4.1855,0.43112,-5.3591,2.0892,0.55872,0.55861,-1.3035,-2.9615,-2.4513,7.9814,-1.2013,-1.3288,3.9258,0.78829,-0.25741,-4.4661,-3.1399,0.12502,-1.9411,0.15052,2.8033,2.2167,-1.8646,8.8742,-0.25745,-3.803,-4.0581,-4.5428,-2.3237,-2.7829,-2.1962,11.705,1.0178,-0.61469,-4.6959,-7.1955,9.8436,-1.6094,0.38017,-0.71673,1.0433,-1.7115,-1.4563,-2.6552,-1.482,2.1401,-0.028023,-0.89527,0.023121,3.1861,0.91586,-1.0482,-1.788,0.073984,-2.4513,-1.3034,3.8237,-0.23204,10.813,-3.293,-0.25753,-0.66563,-3.6501,-0.66564,-2.5277,0.91578,-0.9973,1.579,0.30366,-0.56366,-3.7012,3.7981,4.2318,-0.05347,0.63543,-3.7774,3.9512,3.1604,-2.1707,-0.28315,-1.0228,-2.1961,0.25263,-2.2217,-4.5939,7.5478,3.7727,-2.3492,-0.48712,-1.2268,-2.2216,-1.3288,-0.53811,-2.0686,1.6045,1.3239,-1.737,2.931,-0.10449,-1.0228,-0.28308,-2.4768,-0.48715,8.1344,-0.84426,2.5738,-1.5585,-2.5278,0.04858,-1.941,-4.4917,0.2782,1.9106,0.60967,0.53317,-2.0941,-1.1759,1.63,-1.0738,-1.5329,7.4713,-1.9411,-1.1757,-0.10445,-2.9103,-1.6605,3.0584,-1.686,1.0434,-1.533,1.783,-0.76767,-1.1503,-2.6298,4.4104,2.6248,-1.6859,-0.56359,0.1506,-1.9155,-0.43611,-1.0228,-0.028029,-2.5277,2.2678,3.8747,-0.71674,-1.9411,2.7268,1.426,-0.74218,-0.6912,-1.1504,-0.53817,-0.35954,-1.8134,-0.38503,2.1657,-1.5585,4.1552,-2.7574,0.4822,-3.4715,2.727,7.1908,0.71171,-2.5277,-2.7064,-2.3237,-2.8339,0.81375,1.2474,-2.1196,-2.9868,10.864,3.7727,-1.4053,-2.0686,-2.1706,-0.89527,0.50764,-0.027974,0.12514,-1.1758,-0.94627,0.53319,1.477,-0.13004,-1.8645,-0.4616,1.4259,2.7013,-1.5074,-0.53807,-3.905,2.4208,0.38006,-2.3237,0.73726,4.5634,-2.0939,-1.2268,-2.6298,0.91578,2.0126,0.023029,-0.41059,-0.56367,-0.30855,-0.1555,4.538,-0.53809,-1.4564,-1.2268,-2.1961,-1.4055,0.3291,-0.028018,-3.446,10.711,3.4155,-1.9921,-2.2471,-3.3694,-0.002467,-1.0483,-4.6194,-0.99727,2.2167,3.6197,2.2167,-0.71666,1.0434,0.048531,-0.66573,0.25254,-0.18106,3.6707,0.099552,-0.94625,1.477,-2.1451,-0.76768,-1.5839,-0.97168,-0.48708,-0.33404,2.7523,0.022974,-0.76775,0.68626,0.99233,-0.84425,-0.94623,1.477,-1.5839,-3.9817,0.7883,7.2417,-0.51265,1.1709,-2.6043,-0.71671,-2.0175,-2.7573,3.7726,0.45662,2.6758,-0.71669,-1.8134,0.25274,-1.2013,-1.2013,4.6654,2.8799,0.20158,-1.839,-1.9156,-1.482,-1.0993,0.89028,-0.64012,3.6707,0.94128,-0.58918,-0.43609,-0.51263,-0.8187,-1.7625,1.9616,1.1454,-1.4053,4.0533,2.0892,-1.8645,0.048512,-1.2523,-3.0634,2.1146,2.3187,-1.533,0.25258,0.50772,-1.3798,-2.8338,-0.51264,5.3287,3.4921,-1.1757,2.3443,-2.0431,-1.8645,-1.8646,-0.86974,0.73728,1.5535,-0.46157,3.0074,-0.33409,0.15055,0.38011,-3.4716,1.6044,0.7372,0.22719,-0.97169,0.7628,-0.46156,-0.6402,-0.97177,-0.71663,-0.79322,2.3187,-0.25756,1.3239,1.3494,-1.6604,-3.9051,3.8237,-0.18097,-2.0175,2.3187,-0.81872,-3.0379,4.5634,0.30361,0.17607,-0.13,-0.92076,-1.2268,-0.74224,-0.94627,3.0585,-0.30851,-0.74218,-0.41056,-1.0738,-0.89526,-0.86975,2.3187,0.30363,-0.13001,-0.56364,-0.71668,0.17612,2.7269,-0.92073,0.99237,0.22707,-0.89528,-1.5329,-2.3237,2.1912,4.2063,-2.2472,-0.94627,5.3797,-1.1247,-2.0176,-0.38513,0.048506,0.58422,0.27815,-0.81871,-1.6095,2.4463,-1.1759,0.099546,-0.12999,-2.0176,0.30364,3.3136,-1.6349,0.89031,-0.86974,-1.0228,-1.0228,-0.53819,-0.43609,0.074093,-0.181,3.8237,1.9361,-1.431,1.3239,-0.43609,-1.5329,0.32914,-0.30858,0.048567,-0.20653,-0.35951,-1.5329,-0.3341,1.8851,-1.3544,1.8851,-1.2013,-1.1248,-1.0482,-0.35956,0.60967,-0.079021,1.3494,0.17608,-0.71666,1.681,-1.4564,-0.12999,-0.23203,2.9309,0.96685,-3.6501,-1.2268,3.4666,-1.2779,-2.0941,-1.0227,1.1964,-0.48712,-0.28311,-0.079033,-0.48713,-0.43605,1.5281,-0.002461,0.68621,0.22707,1.5535,-1.8901,1.8596,0.35471,-0.027944,-1.8645,0.48218,-1.3544,-1.8646,0.27808,2.8799,-0.43612,-0.35954,-0.51257,-1.0483,0.099564,-0.002491,0.023041,-2.5277,4.2829,0.30364,-1.0738,0.25262,-1.4564,0.89028,-0.71677,0.53317,-0.4616,-1.5329,0.0741,0.55873,1.2474,-1.5074,-2.3492,3.8746,2.4462,-1.788,-1.0993,-0.89521,-0.9462,0.25269,-1.4818,-0.43609,0.099534,-0.053562,0.2015,1.6555,-0.1555,-0.15542,1.5791,-0.027987,-1.3289,2.8544,-0.35955,0.15062,-2.6043,1.1454,-1.0993,2.7268,-1.3544,-0.97175,-1.0483,0.45667,-1.0483,0.71177,-0.53813,-0.41059,-0.30855,-0.43608,3.288,-0.05347,1.0179,0.60974,-0.58915,-0.86974,1.3749,1.8086,-1.686,-0.84425,-2.2216,-0.89522,1.7065,0.53316,-0.71664,-0.283,1.324,-0.18093,-0.71665,-0.10454,-0.46168,-0.25754,1.1198,-0.41063,0.074087,4.3594,0.43119,-1.4054,0.048549,-2.2727,-2.9614,0.0485,9.767,-1.635,-2.3236,-2.3236,-2.3492,1.2984,0.76272,-1.3034,-0.053513,0.58422,0.32918,-0.02795,1.7066,0.81381,0.38016,-0.7932,-1.4564,1.2984,1.4005,0.15056,-1.686,-0.94625,-1.6859,1.6046,-2.247,2.7268,1.9105,-0.86986,0.022974,-0.66567,1.0689,0.81387,0.94135,-0.079033,-0.23204,-0.002436,-0.23202,-1.3799,0.38015,2.4718,0.73725,-0.71667,-1.4564,0.22709,0.32912,-0.81871,-1.737,1.8086,-1.5584,4.691,-0.28305,-1.2779,-0.86979,-0.71673,-1.1759,0.099588,-0.81866,-1.1758,1.1454,2.8799,1.7576,-0.43612,-0.23202,-0.58914,-0.2065,-0.41055,-0.58914,-1.2524,-0.74217,1.5025,2.7524,0.81376,-1.7115,-0.46167,-1.5074,-0.46156,-0.7932,-0.35959,0.35464,-0.18105,0.55872,1.2984,0.68622,-0.58915,1.0179,-1.2267,-0.02798,-1.2779,-1.533,-1.635,5.4306,0.074044,-1.4819,-1.4309,-1.4054,-1.5584,0.30364,-0.15547,1.6301,1.4516,0.099564,-0.35961,-0.51265,-0.5382,-0.23207,0.12508,-0.61466,0.25257,0.68622,1.2219,-1.3798,3.4921,-2.4257,-0.41057,5.2777,1.9872,-2.1962,-2.2727,-1.4054,-1.2269,-0.4361,0.6863,-0.79319,1.7576,1.0433,-0.23205,-0.4361,1.5535,0.17609,-0.28299,-0.89521,1.324,-1.5329,0.074013,-0.56368,1.9616,-0.51262,-0.027931,-0.94617,-0.51269,-1.0228,0.12508,0.48214,2.6503,0.81376,-0.43604,-1.9155,0.25267,0.048543,0.55869,-0.92074,1.3494,-0.92077,-0.10453,-1.5329,0.60974,1.1454,0.20158,-0.0535,-0.53815,0.81375,1.9361,0.30363,-1.0227,-1.9155,1.3494,-0.4361,-1.5329,1.3749,0.38011,-0.28307,-0.13004,-0.053482,-0.15548,1.1964,0.40565,-0.078947,-0.33406,0.023054,0.12509,-1.1248,-0.15553,0.43115,1.0943,-0.30858,-0.89522,-0.94627,-0.38508,0.12507,0.91583,-1.1248,1.9616,1.1964,-0.84422,-1.1503,1.7576,-1.2524,-1.6605,-1.0738,-0.5636,-1.0992,2.2168,0.074013,-0.027993,1.7575,0.50759,-0.15558,-0.4361,-1.5584,0.71178,0.27815,3.1605,-1.8135,-1.0228,-0.02795,0.89031,-0.66566,-1.2269,-1.5585,0.50765,-0.51263,-0.18098,0.074118,0.48216,-0.38513,0.71174,0.32912,2.8289,0.22715,-0.92076,-1.1758,-1.0738,-0.71671,0.20155,0.25259,-0.13001,-0.33407,-0.053476,1.0178,1.324,-0.76766,-1.1248,0.12508,0.50767,0.09954,1.0688,-0.48713,-1.2778,-0.99725,1.1709,1.1199,-0.30857,-1.0483,-1.3799,0.20162,0.71174,-0.74217,-0.078977,0.45669,-0.53809,-0.5636,-0.13004,3.237,0.99232,-1.1758,-1.7625,-0.56365,0.5842,-0.18106,0.55872,-0.76764,-0.15551,1.1199,-0.79319,-1.3799,2.3442,0.074081,-1.5329,0.35465,-0.38503,-0.61467,1.9616,0.9413,0.81373,0.048531,-0.66565,-0.053495,-1.9666,0.58423,0.8903,-0.10446,0.30361,3.6706,-0.002485,-1.4819,-1.6094,-1.3544,-0.58913,0.43118,-0.43607,0.3037,0.68621,1.783,0.20153,-0.13002,0.38013,-0.7932,-1.3033,-1.3543,0.099601,-0.20652,0.66071,0.38014,2.6248,-1.3799,-1.4309,1.579,-0.283,-1.0228,-0.97178,-0.8187,0.12506,1.8341,1.3495,-1.3034,-0.12999,1.1454,0.35462,-0.56362,-0.48708,-0.7422,-2.0176,-0.89526,3.5686,0.83929,-0.02798,1.5535,0.023072,-1.1503,-1.0993,-1.1758,0.12505,-0.028018,2.2422,-1.1248,-0.12998,-0.41063,2.1401,-0.25756,-0.76772,-0.69113,-1.0992,-1.0737,1.2985,1.5025,-0.10453,-0.28313,-0.89532,-1.0228,1.9361,0.53319,0.99237,-1.0993,0.94132,-0.027993,-1.0738,-1.3288,-0.74218,-0.7932,1.4004,2.3952,3.9767,-1.3544,-2.1451,-1.2523,2.0382,-0.97177,-0.7422,-0.20653,-0.05347,-0.28308,-0.28307,3.39,0.91581,-0.56362,0.023121,-0.66561,-0.53814,-1.1758,-1.5329,1.6045,-0.079033,0.30353,-0.027998,2.1402,0.43117,-0.79318,-0.9717,0.43117,0.58422,-1.5329,1.7066,1.0178,-0.86972,0.25268,-0.48713,-1.5074,0.99229,0.68622,0.023059,-0.078984,0.40561,0.27809,-0.64015,-0.92072,-0.92073,0.099577,3.5686,1.5535,-2.043,-2.5532,4.2063,-1.1759,-1.1248,-1.788,0.50766,-0.41058,-0.4871,0.8393,2.1657,-0.027962,-0.46152,-0.38504,0.4056,-0.38513,-1.2524,1.528,0.25263,-0.64013,-0.86973,-0.18106,-0.41061,1.7576,-0.25756,-0.18103,-0.71668,-3.1654,1.8596,2.1147,-0.027925,-0.61468,-0.51268,-0.64019,0.58419,-0.30858,-0.74219,0.45665,0.48216,0.048531,0.76277,-0.99723,0.76284,-0.56358,-0.3851,0.60969,0.22712,-1.6349,-1.3289,-1.3289,4.8185,0.71171,-0.5382,-1.7625,-1.3799,-1.0483,-1.0738,-0.12999,1.9871,-0.61462,1.7066,0.58422,-0.7167,0.89029,-0.078966,-0.15555,1.0178,-0.48712,-1.6859,-0.13,1.8341,1.0178,0.43121,-1.4564,-0.25757,-1.6095,2.1402,-0.6657,-1.635,0.32914,1.1454,-0.69117,-0.18099,2.6248,-0.5126,-0.4871,-0.9973,0.43115,0.40565,-0.94625,-2.3747,1.9871,4.3849,1.8596,-1.5584,-3.0123,-2.5787,-1.8136,0.35459,0.45659,0.2526,0.83927,0.81378,0.074087,1.1709,0.27815,0.94133,0.20158,-0.61463,-0.15553,-0.64017,0.17609,-0.18104,-0.66571,-1.686,0.73723,1.7321,1.0434,-0.89524,-1.4819,0.32915,-0.41062,-1.9155,1.273,0.81378,0.35464,0.66077,-0.18106,-0.25761,-0.15554,-0.053464,-0.64013,0.30365,1.2984,-1.1758,0.81381,0.73727,-1.0738,0.99229,0.55867,-1.635,1.3749,0.25262,-1.839,-0.58911,1.222,0.40566,-0.46162,0.09954,-1.2013,-1.2013,-0.79322,3.3645,0.22708,-0.64011,-0.81866,-0.56364,-0.23198,-0.97176,2.0381,0.60965,-0.64021,-1.4819,-0.13002,2.7269,1.477,-1.5075,-1.3799,-1.4054,-1.4309,-0.51259,-0.20652,0.023041,-0.002461,0.55866,2.5993,-0.94625,-0.35959,-0.69119,1.426,0.2526,-2.1451,0.53318,1.4005,-0.43609,-0.053482,-1.5585,-0.6402,3.4921,-0.25757,-1.3544,0.17612,0.023059,-0.64015,-1.584,0.71177,2.2677,-0.079026,-1.2268,-0.12998,-0.61464,-0.74216,1.4005,-1.5075,-0.002521,0.99229,0.58417,-0.76775,0.27814,-0.58909,0.15064,-0.027944,0.53318,1.0433,-0.23207,-1.5839,-0.64017,-1.1248,0.83931,-1.1248,3.5176,-0.64018,0.20153,-0.23205,-0.56364,-0.1555,-0.20652,0.12509,0.71175,0.12507,0.12508,-0.053476,-0.41055,1.0944,-0.38512,-0.15553,-1.4054,-0.079008,1.6045,-0.86967,-0.9207,-0.64017,0.73724,-0.48713,-0.46162,-0.71667,1.2984,1.5024,-0.74219,-0.38508,-0.53812,-1.4054,-1.1248,2.7013,0.43116,-0.10449,-0.58915,0.35464,-0.25753,-0.97175,1.9106,0.45667,1.9361,-0.53812,-2.3491,-1.7624,-0.30862,-0.53819,-0.3341,-0.43612,1.2984,0.5587,0.60974,1.6045,-0.4616,-0.74219,-0.61467,-0.81868,0.099588,-0.35956,-0.053495,-1.2778,-1.4309,4.0022,1.885,0.50765,-1.839,-1.788,-1.1248,-1.1503,-0.25756,-1.635,0.4567,1.3495,-0.1555,-0.20652,-0.6657,0.20159,2.0126,-0.20654,0.7117,-0.053506,-0.53812,-0.8187,-0.81866,-0.61463,2.1657,1.579,0.099601,-1.9155,-2.1961,-0.28306,-1.6095,2.6503,-0.81874,0.1761,0.27814,-0.89523,0.38013,0.048561,0.40565,1.3239,2.3698,-0.58914,-0.76771,-1.0227,-1.2778,-1.0483,1.3494,1.375,0.66077,-0.002479,-0.23207,0.023017,-0.28305,-1.3799,1.7066,-0.51264,-0.3086,0.9158,-1.0738,0.68627,1.0689,-1.0483,-0.84422,1.2474,0.45663,-0.69119,-0.10454,0.35465,-0.15549,1.1454,-0.33402,1.2729,0.074033,-1.0738,0.25262,-0.53812,-0.23201,-1.2778,2.1657,0.99237,0.099546,-0.92079,-0.3851,0.78829,-0.61467,-0.002461,-0.69116,-0.84422,1.2474,-0.5126,0.35467,-0.10451,0.48214,-0.30856,-0.35956,-0.58913,-0.99724,-0.10449,3.3135,4.1298,0.9668,-2.4257,-1.5585,-1.686,-1.584,-0.81871,1.6811,-0.053476,0.048555,0.099588,0.17611,1.375,0.25259,-0.41059,0.96681,0.38016,-0.23203,-0.23205,-0.18105,0.78824,-1.89,-0.4616,0.68626,-0.4871,1.9107,3.3901,-0.86967,-1.6605,-2.1452,-0.71673,-0.10453,-0.6657,1.477,-0.2575,1.8596,-0.15551,0.30361,0.60974,0.12509,0.12508,-0.078977,-0.18101,-0.2065,0.12509,0.38012,-0.86976,-2.5532,-0.64014,2.4973,5.6093,1.2474,-2.2727,-2.6553,-2.0941,-1.3034,-1.0483,0.12507,0.94133,0.68626,-0.18099,2.2167,0.63521,-0.1045,0.6607,-0.23202,-0.69109,-1.0737,-0.30859,0.4056,0.3546,0.43115,0.32915,-0.6657,-0.7167,-0.81867,2.6248,-0.89526,-2.3237,2.7524,2.3697,-0.48713,-1.6605,-1.4819,-0.99727,0.17606,-0.66565,2.3188,-0.43611,0.66072,1.6045,-0.99726,-0.58915,-0.76769,-0.58914,0.25266,1.2984,-0.43604,-0.94628,0.25255,0.38013,-0.027987,0.68623,1.3239,-0.20652,-1.4309,-1.0738,-1.2524,-2.0686,1.1454,2.3188,0.099657,0.12513,-0.41063,-0.10453,-0.74226,-0.18103,-0.1045,-0.43614,-0.84421,2.5993,0.38013,0.94131,-0.35957,-1.7625,1.2219,2.5228,-0.81871,-1.2014,-1.8391,0.48219,-0.25751,-0.97176,-1.6094,1.3749,4.2573,-0.25754,-0.4871,-0.69116,0.81379,-1.0227,-0.7167,1.4259,0.6352,-1.0228,0.17609,1.2984,-1.1248,3.1605,-0.74218,-0.66565,-1.3799,-0.84422,0.074087,-1.1248,0.78829,-0.18097,2.0892,-0.18103,-0.05347,-0.81871,1.3239,-0.23202,-0.38513,0.6607,-0.079002,-0.6912,-0.20649,-1.0738,-0.33407,1.0179,1.1709,-0.078977,-0.15554,0.20163,-0.46165,2.1146,-1.6094,-1.9665,-0.38505,-0.79319,-0.56368,0.38011,-1.0228,-0.51263,1.7831,1.7831,0.91583,-1.3289,-0.84425,1.0688,-0.79322,-1.0993,-0.18098,-0.30859,-0.38509,-0.53812,1.426,-0.15552,2.2167,-0.33404,-0.28303,-0.9462,-0.56366,-0.027974,0.12508,0.048506,-0.3086,-0.89524,1.4259,4.1808,-1.8135,-0.56359,-1.4053,-1.3544,0.074057,-0.92076,-0.2065,1.63,0.38013,0.074026,-0.20656,-0.48706,-0.33404,0.68626,0.30362,-0.41063,0.27808,0.32912,-1.1758,-0.94626,1.426,-1.0483,3.4922,0.68627,-1.4564,-0.56363,-0.3086,0.27809,-1.3544,-1.0993,-0.56362,0.12508,0.78822,0.89029,-0.20652,-0.71664,2.3443,0.60971,-0.18106,-0.2065,0.35468,0.22709,-0.97179,0.22707,0.25257,-0.078941,-1.1503,-0.002485,-0.18103,-1.2778,2.9564,1.0943,0.50766,-0.51264,-2.1451,-1.941,-1.4819,-0.74219,0.048531,1.375,-0.10445,0.15059,-0.18103,0.91581,1.7576,0.02301,-1.0483,-0.89525,1.2985,1.2985,2.1658,-1.3798,-2.0176,-0.25756,-0.9208,0.048463,-2.1452,3.186,-1.2013,-0.15546,-0.027969,-0.35957,-0.48712,-0.053513,1.0433,1.5025,-0.4871,-1.1248,1.1964,-0.078996,-1.1248,-0.76772,0.7883,2.2677,-0.46165,-1.5329,-1.1758,0.12509,1.1454,-0.13,0.15059,-0.76769,-0.3086,0.12507,0.023017,-0.3851,-0.46156,0.35464,0.89029,-0.35957,0.35465,1.4515,0.50766,-1.2013,0.20161,-0.58914,-0.64015,-0.41056,-0.58914,-0.53814,0.68624,-0.4106,0.71173,2.4718,-0.61462,-0.48713,0.32914,0.63521,-0.10451,-0.33409,-0.43609,0.17606,0.43115,-1.0738,1.0434,-0.7676,-1.0482,0.15053,0.63517,-0.38511,1.63,1.6555,-0.6912,-1.4309,0.8393,-1.5074,-0.94622,-0.56362,0.50768,0.17606,1.2729,-0.15553,-0.92076,-0.66565,0.83928,0.048536,0.4822,0.22713,-0.25751,-0.81875,0.45664,-0.86974,-0.74216,-0.30855,-0.25758,-0.027974,0.12505,-0.86967,2.6504,-0.46164,0.71172,0.20158,-0.12996,-0.23199,-0.28306,0.15056,-0.84423,-0.25759,-0.58915,-0.69116,0.2016,-0.12997,-0.81871,1.1199,1.0689,2.0382,0.023023,-0.56369
-0.15552,-0.25754,-0.15553,0.099559,0.15058,0.17607,-0.053482,0.048543,-0.07899,-0.002454,-0.1045,-0.027987,-0.078977,-0.20653,-0.74218,0.17609,1.8341,0.43117,-0.35956,-0.33402,-0.56368,-0.30862,-0.41058,-0.41055,-0.002443,0.074057,0.099588,0.25259,0.20158,0.45668,0.27811,0.38013,0.17609,-0.41059,-0.33408,-0.23201,-0.10448,0.048512,0.074057,-0.10447,0.023059,0.17607,-0.002448,-0.002467,-0.53814,0.27813,0.15058,0.12505,0.048549,-0.027962,-0.15552,-0.027993,-0.20652,-0.027962,-0.027969,-0.027993,-0.35958,1.63,-0.66565,-0.71668,0.27814,0.35464,-0.33407,-0.51261,-0.35959,-0.20654,-0.078984,0.12508,0.1761,0.25259,-0.002472,-0.002461,0.099559,-0.002479,-0.12999,0.023072,0.023054,1.4514,-0.23203,-0.41058,-0.053439,-0.20649,-0.38509,-0.35959,-0.25754,0.15057,0.2781,0.2526,0.074062,0.023023,-0.12999,0.023047,0.074044,-0.07899,-0.05347,-0.10447,0.074062,0.12508,0.3036,0.074008,0.4822,-0.38506,-0.15551,-0.79322,0.71175,-0.28303,-0.10449,0.023059,-0.002454,0.074062,-0.078996,-0.053495,0.2781,0.45667,-0.25753,-0.13,-0.027962,-0.18103,1.2729,-0.23205,-0.20653,-0.43607,-0.30856,0.048531,0.15059,-0.002454,-0.1045,-0.181,0.32914,0.76266,0.048549,-0.18101,-0.48707,-0.30855,-0.027962,0.12508,0.17607,0.099559,0.12508,-0.1045,-0.18103,-0.43609,0.86481,0.89029,-0.3851,-0.53813,-0.5126,-0.33406,-0.33408,-0.69118,1.2729,0.58419,0.40566,-0.35957,-0.15553,-0.25754,-0.181,-0.13,0.048536,0.25261,-0.027956,-0.053476,-0.0535,0.048543,0.35467,-0.13,-0.20655,0.12507,0.38018,-0.13002,-0.30856,-0.23202,-0.002461,0.25259,-0.10449,-0.46159,0.12507,-0.002491,0.43117,1.2984,-0.053482,-0.56365,-0.41059,-0.43609,-0.20652,-0.002485,-0.078977,0.22712,0.27814,0.30361,-0.15551,-0.23204,0.53318,-0.078977,-0.027974,-0.12999,-0.23202,-0.1045,-0.079008,-0.30854,0.96686,-0.053519,0.074013,0.15059,-0.43609,-0.28305,-0.078966,-0.10449,0.023023,-0.027956,-0.002454,0.17606,0.074057,0.048555,0.09954,0.074057,-0.053464,-0.053488,-0.18101,-0.43609,0.30361,2.1147,-0.30854,-0.25754,-0.76772,-0.84422,-0.79319,-0.20653,0.73725,0.15059,-0.07899,0.099546,0.15059,-0.02798,0.023029,0.17609,0.15059,0.12505,0.12509,0.17607,0.048536,-0.13001,-0.10449,-0.07899,-0.18101,-0.002472,-0.078984,0.20158,0.023059,-0.13002,-0.18101,-0.7677,1.4005,-0.078977,-0.30858,-0.07899,-0.053482,-0.1045,0.023059,0.074038,-0.027974,0.074062,0.074038,-0.15551,-0.078972,0.12505,0.20161,0.94134,0.099564,-0.89525,-0.58914,0.48218,-0.15553,0.20159,-0.05347,-0.3851,-0.25753,-0.078984,0.048555,0.12507,0.15057,0.12508,0.074051,0.048549,0.25262,0.2526,0.023047,-0.002461,-0.02798,-0.078977,-0.20654,-0.13001,-0.12998,-0.002485,-0.002448,-0.027987,-0.10449,-0.027956,0.074044,-0.18101,-0.05347,0.12505,-0.002454,-0.027969,-0.07899,0.048561,-0.15551,0.43117,0.15059,-0.23205,-0.20652,-0.23203,-0.1045,-0.10449,-0.13002,-0.13001,2.1147,-0.38508,-0.46159,-0.28307,-0.43609,-0.35957,0.20159,-0.18102,-0.18101,-0.53812,1.0433,0.22711,0.32915,0.12507,-0.35959,-0.33406,-0.48711,-0.28305,-0.25753,0.38015,0.20159,0.048555,0.023041,0.074062,0.02301,-0.078984,-0.078984,-0.078996,-0.053458,-0.18102,0.27812,0.048561,-0.23202,-0.20653,-0.15551,0.074075,0.53318,-0.41059,-0.20653,-0.18103,-0.25753,0.074062,-0.13003,0.91583,-0.078996,-0.0535,-0.053482,-0.23201,0.074057,0.17607,0.074051,-0.078984,-0.002485,0.22711,-0.078984,-0.43609,-0.18101,0.68626,0.12507,-0.25754,-0.30857,0.15059,0.27811,-0.46163,-0.53813,-0.38506,-0.02798,0.074051,0.023047,0.25262,0.40565,0.12507,0.12507,0.12507,0.40566,-0.053495,-0.05347,-0.28306,-0.15553,-0.078966,-0.1045,-0.027969,0.048555,0.17606,-0.027962,-0.0535,-0.13,-0.078996,0.099546,0.048549,0.048549,-0.30857,1.5025,-0.18103,-0.48712,-0.30854,-0.15553,-0.30855,0.023047,0.17607,0.48219,-0.35957,-0.18103,0.38016,-0.23205,0.5587,-0.35957,-0.15553,-0.2065,-0.13,-0.43611,1.0944,0.27812,-0.10451,0.3036,-0.20653,-0.28305,-0.18101,0.048555,0.099546,-0.053482,0.074038,0.023041,0.048567,0.2271,0.09954,-0.15551,-0.12999,0.099564,0.12506,-0.078977,-0.078972,0.12505,-0.02798,-0.1555,-0.30856,0.43117,0.4822,-0.28305,-0.053495,0.12509,0.15057,0.023041,-0.18101,-0.35957,-0.25755,0.30364,-0.35957,0.15057,0.76278,1.4005,-0.64015,-0.43609,-0.25755,-0.28304,-0.079008,-0.13001,-0.002485,0.20158,0.2271,0.25261,0.099546,-0.002436,0.048543,-0.027987,0.048555,-0.13001,-0.23205,-0.078977,0.2016,0.074057,-0.053451,0.17607,-0.2065,-0.078996,-0.1045,-0.10449,-0.15551,-0.079008,0.023047,0.09957,0.15057,-0.002448,0.048549,-0.20653,0.48219,-0.25756,0.30363,-0.18102,0.17607,0.32913,-0.13,-0.25754,-0.20652,-0.3851,0.48218,-0.30854,-0.15553,0.17607,-0.053464,0.55871,-0.18101,-0.027969,0.023023,-0.053482,-0.078972,-0.079008,0.048555,-0.027969,-0.002467,-0.027962,0.023047,0.12505,0.074069,-0.053482,-0.20653,-0.20651,-0.13002,-0.027969,0.27813,0.30361,0.35465,-0.30854,-0.33409,-0.38507,0.32912,-0.1555,-0.13001,-0.028005,-0.053458,0.53319,0.074038,-0.20653,-0.18101,0.17609,0.58419,-0.027974,-0.20652,-0.13002,-0.28304,-0.41057,0.91579,-0.23204,0.78829,-0.46162,-0.41059,-0.027969,-0.13002,0.53321,-0.10449,-0.15551,-0.053458,-0.002479,0.048543,-0.15549,0.023023,0.023047,0.12505,0.048549,0.099577,0.048536,-0.078996,-0.027969,0.074038,0.048555,0.023041,-0.18103,0.27814,-0.25754,0.43116,-0.20652,0.023047,0.099546,0.12508,-0.25754,-0.027974,-0.10448,-0.079008,-0.1045,0.12508,0.17607,0.17611,0.15058,0.023047,-0.027956,-0.027993,-0.02798,-0.078996,0.099552,-0.027974,-0.027969,-0.079002,0.8648,-0.23204,-0.38509,-0.30855,-0.18101,-0.13002,0.099577,0.099559,-0.002467,0.15058,0.22709,0.023035,-0.053464,-0.053476,-0.027998,-0.10447,-0.053488,0.35465,-0.23202,-0.20653,0.30363,-0.07899,0.09957,0.17607,-0.51262,-0.66565,1.1709,-0.66569,0.09957,1.2219,-0.10449,-0.9718,-0.69116,0.40565,0.94129,-0.46159,0.20165,-0.53809,-1.0993,-0.25749,-0.35958,0.17601,1.9615,1.9616,-2.0686,-1.2013,-1.5583,1.8597,5.3032,-1.3543,3.3645,-2.0942,-2.7319,-1.482,-3.4461,-2.9614,-1.8645,0.32921,2.8546,5.2012,6.4764,-2.2726,0.048543,-4.5683,-6.3283,6.6296,-0.027969,0.27804,2.5482,0.71168,1.2219,-4.0072,-2.4767,3.186,-1.6605,-7.017,-2.5787,-1.5585,6.6039,-0.53811,-0.053495,7.0887,-0.97171,5.0226,-3.0889,-1.9919,0.96693,-5.6907,0.63515,1.1453,2.7778,0.43105,-6.3029,-0.33411,7.6498,4.7675,-2.9869,-2.0175,-2.7827,-3.4969,0.94147,1.426,2.1402,-2.8083,0.30361,7.9048,2.5227,-1.7625,-3.2164,0.48214,1.8596,-2.6043,-3.446,-0.7167,2.9819,0.53314,1.579,-1.6605,-2.4002,-1.3543,-0.79324,5.8644,-0.81872,-2.9103,-0.4871,-1.6096,-2.6808,5.9154,11.145,0.81383,-4.2878,-5.9203,-4.5685,-4.0838,5.9407,3.4411,-1.941,0.22729,-1.6858,-4.0327,3.2114,0.40557,-0.94634,7.4458,-4.3898,0.20158,3.4156,4.589,0.45672,-1.839,-3.2164,-1.5584,-2.5788,-1.3289,0.63514,0.35461,0.99229,-0.4361,0.45672,1.3495,-3.9051,7.5989,1.6301,1.0433,-2.7318,-2.8849,-2.2472,-3.7011,0.50772,4.4359,0.15056,0.43112,-1.9921,-1.0483,-0.35949,-5.1295,8.364,1.9615,-0.41064,-1.2779,-2.6552,3.3136,4.0788,-1.6095,2.8544,-2.6298,-2.2727,-1.5584,-1.5074,-1.2777,-1.686,0.58424,2.2166,-1.6861,1.834,-0.43613,1.426,0.0741,-1.7879,-4.0071,-1.2778,3.6961,1.579,1.5534,1.885,-2.4002,-2.7318,-2.1451,-0.94625,-1.9155,7.7008,0.60969,-0.76769,-2.8083,3.3646,-0.053446,-1.1504,2.4972,-1.635,-1.0483,-0.15551,2.0892,1.9361,2.6249,-1.6859,-2.3492,0.76274,-1.1759,-1.0483,-0.4871,0.91585,-1.8901,3.5431,1.0434,-0.61465,-1.0483,0.58423,0.40566,-1.89,0.38017,-0.41063,4.1298,1.5025,-1.6605,-1.737,-2.7063,-2.6043,4.4614,2.0126,0.074075,-2.8338,-3.0889,1.9361,2.2932,-1.8901,1.4515,-3.0124,1.375,1.324,-0.10452,0.50774,-1.4819,0.50764,0.22705,-0.71673,-0.66569,-0.7167,1.3239,-2.6807,5.5328,0.71181,-1.3033,-1.2523,-1.2013,0.7627,-1.6605,0.55872,0.15064,1.1709,-0.002479,-1.1759,0.048531,1.7321,1.3239,-1.6095,-0.89522,0.099588,-1.1248,0.048531,2.2167,0.66075,-1.0993,-1.2013,1.8086,1.5535,0.81379,-2.6553,-5.5121,5.9663,2.3953,-0.10448,-0.84422,-0.15553,-0.35962,-2.2216,0.86476,1.9361,-0.56364,-0.56364,-0.28303,-0.84417,-1.0228,-0.078984,4.2318,2.4463,0.30364,-0.79321,-1.6604,-1.3544,0.55867,-0.30855,0.09957,0.86482,-1.6605,-1.0483,-1.4054,0.30366,2.9054,-1.1503,1.2475,1.2219,-2.6043,-2.9103,3.9767,-0.30855,-0.232,0.45671,-1.0993,-0.97182,-0.10451,-1.1248,1.8086,0.27817,-0.69116,-1.584,3.8747,0.35461,1.0943,0.94134,-2.0431,1.681,1.5025,-1.5585,-1.5074,-1.4564,-0.92079,-1.5839,-1.3799,4.9205,0.27812,-0.15551,-0.61468,-0.7167,-1.2268,-1.4309,6.8336,1.8087,-3.4715,0.048629,-0.84422,3.6961,-1.5074,-1.9156,-1.3799,-0.86976,-0.61465,-2.1961,-2.3747,5.8133,3.084,-0.66563,-0.97171,-1.3033,-1.2268,-0.64017,0.27808,2.4972,-1.4564,0.17614,-0.33408,-1.0228,-0.71668,0.3036,-0.46164,0.22707,1.477,1.2475,-0.92074,-1.788,3.4666,-0.30856,-1.3288,-0.33408,0.58417,0.5587,-1.1503,-0.4871,0.43116,0.53319,-0.64017,1.6045,2.3442,-0.53811,-0.027931,-1.3544,-1.3544,-2.5278,-0.56367,6.0429,1.1964,-2.6808,0.60971,1.426,-1.2013,-0.38505,-1.1758,-0.51263,3.6196,1.477,0.30358,-2.043,1.6046,-0.38508,0.48218,0.48214,-0.61465,-0.79318,-1.3033,-0.51259,0.58417,3.084,-0.86976,1.0178,-1.0483,-0.79321,-1.5074,-2.0431,-0.56363,3.288,2.0636,0.43116,-2.0431,-1.1249,1.6301,2.4718,-0.94623,0.96685,-1.4564,-1.788,-0.002467,-1.0993,-1.5329,0.50766,3.9512,-0.64017,-0.48714,0.73722,-0.002461,-0.283,-0.64007,-0.33401,-0.20656,-0.028023,1.8085,2.3187,-0.15556,2.2167,-1.4819,-2.1961,-1.8135,2.4718,0.73725,-1.5329,-1.2012,0.50765,-0.10453,-0.66569,0.30359,0.94127,0.099552,-0.41059,0.99234,0.8393,-0.51258,-0.69113,-1.9411,0.63523,2.2422,3.186,-1.4309,-1.3544,-0.89525,-1.635,-1.9411,-0.94627,3.2115,-0.28304,3.8237,-0.84419,-0.84416,-1.4564,1.783,0.40568,-0.86978,-0.10453,0.86474,-0.283,-0.81862,0.30368,-0.56364,-0.13006,0.20153,0.83926,2.3952,-1.0483,-1.2268,-1.3799,-1.0227,-1.4309,0.27814,-0.20652,1.4259,0.68625,-0.13001,-0.30859,-0.23205,-0.002485,-0.30854,-0.30852,0.15065,0.53317,-0.35961,0.99232,1.1964,-0.86975,-2.1197,3.084,1.8341,-1.1758,-1.8135,-1.3289,-1.0483,0.35465,1.0688,-0.71668,-0.64012,0.58427,-0.23201,0.73726,1.2474,-0.43614,-0.002479,-0.35957,1.4514,0.074087,-0.13001,-0.64008,0.30364,-0.74218,-0.20656,-0.66572,2.2932,-0.86977,-0.25752,-0.92068,-1.0227,-0.58912,1.681,1.4515,3.084,-0.30855,-0.6912,-0.84424,-0.74218,-0.81875,-1.7625,0.81377,1.3749,-0.43613,2.3443,-0.66569,-0.51256,-1.4563,0.43117,1.579,-1.3034,-0.15556,-0.35964,-0.38511,-0.53812,-0.69111,0.58425,0.94132,0.35464,0.12504,0.25262,0.023041,-0.33407,0.58418,-0.69116,-1.0227,-1.0482,2.7779,0.048531,-0.94628,-2.5278,1.834,0.60974,-1.4309,1.3495,1.2984,-1.737,-1.3799,0.48219,-0.7422,-0.38507,-0.64014,-0.35956,4.1553,-0.15555,-1.4309,1.375,1.273,-1.1502,2.9309,-0.66573,-1.788,-1.5075,-1.1248,-0.71671,0.27808,-0.61467,1.324,1.5281,-0.79312,0.53327,1.477,-1.5585,2.6758,-0.81876,-0.76772,-0.02798,1.1964,-0.97174,0.40565,-0.28306,-1.4309,0.023041,0.78829,1.3495,-0.35959,-0.002479,-1.737,-0.25753,1.4514,1.1964,-1.3799,-0.79322,-0.61465,-0.10451,-0.1045,1.0689,2.0382,-0.002443,-0.61465,0.17609,-1.4053,0.27817,0.4567,0.78826,-0.48716,-0.43616,-0.079008,0.099552,0.45667,-0.30854,-1.1248,0.17608,-0.30854,0.99235,-0.078972,-0.61463,-0.33405,-0.58915,0.48218,0.35463,0.73725,-0.46157,0.099534,-1.6095,-2.0176,1.8086,4.5634,1.5025,-1.6605,-1.6349,-1.1248,-0.86973,-0.38507,0.048561,0.15058,-0.89522,0.8648,2.5993,0.96679,1.3494,-0.9207,-0.69116,0.099583,-1.0738,-1.533,1.1454,0.76274,-0.35959,-0.28304,-0.25753,-0.027956,-0.35952,-0.56362,-1.3544,0.43116,4.1553,0.32912,-1.839,-0.41055,-2.0175,-0.74223,-1.2269,-1.3799,0.15059,3.5176,2.1147,-0.89518,-0.84425,-1.3799,0.55869,-0.30855,-0.23198,0.12507,-0.10449,-0.28305,0.20161,-0.20649,2.3697,0.68619,-0.18103,-0.71668,-1.2524,0.048573,-0.46162,-0.99726,-0.64014,0.99238,0.50765,1.0688,0.40569,-0.23204,-0.33404,0.81378,-0.66568,-0.92074,0.15054,-0.079008,-0.002467,0.68632,-0.35952,-0.89521,0.89027,1.0943,-0.002503,1.1709,1.579,-2.2727,-1.7625,1.5535,2.5483,-0.13001,-1.6604,-1.3288,-2.3491,0.40575,4.8695,0.58414,-1.38,-1.0483,-0.53817,-0.079026,0.22713,0.27812,0.40568,0.40569,0.5332,0.40568,0.32917,-1.8135,0.40568,0.2526,-2.0176,2.5483,-0.18103,0.02301,-0.18103,-1.788,-0.027871,-1.9411,1.885,0.55858,1.5789,-0.84425,-0.61463,-1.1503,0.91584,0.78827,0.60974,-0.58911,0.023072,0.25267,-0.33407,-0.7167,2.1147,-0.18102,-0.79321,0.96682,0.68621,-1.1248,-0.76767,0.5077,-0.0535,0.20158,-0.58915,-0.027974,-0.97175,-0.33405,-0.51264,-0.46161,0.35464,-0.81871,1.2984,-0.28304,0.17616,1.426,-0.079008,-1.2778,0.83925,-0.3086,-0.69122,-0.30858,3.0329,-0.94624,0.99237,-0.81871,-1.5584,1.1709,1.5535,-0.61465,1.1965,-1.4308,-1.482,-0.28309,-1.3544,0.35461,0.53315,-0.053476,-0.20651,0.023047,0.48219,-0.66567,1.7321,-0.10447,1.477,-1.5584,0.32913,-1.0993,-0.10445,-0.20655,-0.89525,-0.33413,1.5535,-0.53817,-0.7932,-0.002436,0.63524,-0.20647,0.32913,-0.43607,0.6097,-0.94624,-1.1758,1.681,0.43115,-0.97177,0.53317,0.09957,0.71176,-0.027969,-0.48708,0.30364,0.04858,-0.38515,-0.3086,-0.9463,-1.8135,1.1709,0.9158,0.73728,1.273,-0.79316,-1.1503,-1.8135,1.681,-0.002497,-0.20657,0.099559,-0.35955,-0.66564,-0.46159,0.38018,-0.28306,-1.3799,1.1964,0.32915,3.339,-0.51259,-1.1248,-0.92084,1.0943,-0.86976,-1.635,-0.35951,1.2984,1.0944,-0.002479,-0.35956,-1.3033,-1.2524,6.604,-0.53811,-0.8442,-0.97177,-1.0483,-1.3033,2.7779,-0.23201,-0.97176,0.074044,0.48217,-1.737,0.58424,0.86486,0.22711,-0.71668,0.55864,1.1454,0.5587,-1.0738,-1.5074,1.732,0.40568,0.27817,0.20161,-1.1503,0.15056,1.5025,-1.0738,-0.66564,-0.81874,1.3239,-0.58918,-1.2523,2.4718,0.17609,-0.23199,-2.043,-0.053531,1.8085,-0.81873,0.38018,-0.00243,-0.84422,0.81375,-0.38511,-1.2014,-0.53811,0.074087,-0.46156,0.27815,0.32912,0.96679,-0.79318,1.8086,-1.3799,3.2625,0.17609,-1.3799,-0.92072,-0.38513,-0.81876,0.074069,-0.078935,-0.89518,2.5738,-0.79326,-1.0228,0.78829,0.71176,-0.33407,-0.92075,-0.10453,0.074069,0.20161,1.2219,-0.76768,-1.2013,1.1709,0.023096,-1.0227,0.45667,2.8544,1.2474,-0.43614,-1.9155,-1.3799,0.8903,-1.9155,3.5686,0.15061,-1.4564,-0.079021,-0.56365,0.71173,0.2526,-0.053488,0.023023,-0.078953,-0.28303,-0.61465,0.074062,2.3443,0.27814,0.048567,0.94131,2.0636,-2.3747,-1.5839,-0.13002,-2.5023,-2.4257,5.4817,0.2526,-0.94619,0.63528,-0.74212,-0.76773,-0.41063,-0.002534,0.43109,0.60971,0.66075,0.048555,-0.07899,-0.69116,1.4515,0.68627,-0.46157,1.579,-0.53812,-1.7625,0.86475,-0.027974,-0.38509,-1.1248,2.3442,-2.1451,0.22708,0.40563,-0.20656,1.1964,0.074057,-0.74218,0.25263,-1.1758,0.048549,-0.10448,0.89029,-0.61465,-0.79318,2.6248,2.1147,-0.30854,-1.5329,-1.4054,2.0381,1.8341,-1.3799,-1.7115,0.099534,-0.38513,0.023035,0.68629,0.0485,0.1506,-0.28304,-0.61462,0.63524,0.048494,0.73725,-1.2013,2.7524,1.8086,0.45669,-1.788,-1.9411,-1.2778,-0.23204,-1.2268,1.2474,1.1709,-0.10452,0.2781,2.3442,0.40568,-1.5584,0.68626,-0.79319,0.17612,-0.64011,0.15052,-0.3086,1.3239,-0.64015,-0.35958,0.27812,-0.71662,-1.3288,0.58422,0.91577,0.12504,1.579,0.17609,-1.5329,-0.25756,0.58422,-1.6094,0.45669,0.89031,-0.99727,-0.002503,-0.20655,-0.97174,1.2474,0.40568,-0.51262,0.30358,0.38007,1.2984,-0.35954,-0.92067,0.50769,-0.76771,-0.02798,0.1506,-1.0993,0.048512,0.32912,-1.9411,3.7217,0.48223,0.89031,-1.4309,-0.13,-1.2269,-0.053525,-1.2269,1.6045,2.4208,0.55871,-1.2778,0.023041,-0.48712,-1.635,0.60971,1.4004,0.17607,-0.56362,-1.1248,0.45666,0.58424,0.35467,-0.79319,-0.61467,1.2729,-0.71671,-0.89527,1.681,-0.028005,-1.4564,1.1455,3.4411,-1.1758,-0.89531,0.12497,-0.56368,-0.84427,1.0943,0.32918,-0.30851,-0.51257,0.83933,-0.89526,-1.635,4.2828,0.15057,-0.078935,-1.6604,-0.97178,-1.1248,0.71173,0.099479,-0.25758,-0.12999,0.63524,0.6097,-0.28303,-1.2778,1.2984,-0.51265,-0.69117,1.0178,-0.56364,0.12509,-1.3799,2.8799,-0.61465,-0.92072,-0.84423,-0.33407,0.27807,-0.53804,-0.6147,2.8289,0.099564,-0.69119,-1.3033,-1.0227,-0.053482,2.1911,0.45666,-0.89525,0.76273,-0.61468,-0.66566,1.1965,-0.48716,0.38012,-1.3289,-0.4871,0.1761,3.0585,-1.3544,0.20163,-0.4106,-1.4819,-0.89521,2.4463,-0.74217,-0.61465,0.17607,-2.4257,4.0788,-0.027987,-0.8952,-0.1555,0.58422,-0.51262,-1.3799,1.6555,-0.18103,0.60968,-0.053488,1.7831,-1.5584,-0.232,-0.86971,0.35461,-0.64018,-0.43612,1.0178,-0.81871,0.40565,-0.053402,0.12509,-0.33406,-0.33407,0.45666,2.9054,-0.94627,-0.30855,-0.74215,-1.2778,-2.4002,3.1095,-0.35961,0.20156,-0.3596,-1.0738,0.58422,0.68624,-0.027974,-0.74218,-0.61466,-1.1248,1.2474,-0.56363,0.8393,-0.10454,-0.3086,-0.18101,-0.10449,0.71177,0.99236,0.3546,-0.76772,0.35462,1.2219,-0.86969,-0.86972,-0.79325,-1.5584,1.2474,-0.20655,0.27812,-0.15555,-0.20652,-0.41055,-1.3033,0.43124,1.528,-0.71672,1.732,-0.43612,-1.3034,-0.002436,-1.2269,3.0329,0.074051,-1.3544,-1.2523,0.35465,2.9054,-0.25751,0.76274,1.528,-1.5329,0.17614,-1.1757,-0.41061,-0.5892,0.55866,2.5993,0.48218,-0.69117,0.074106,-0.46159,-0.23206,-0.6657,-0.53815,1.0944,0.66077,-0.66563,0.15057,0.63523,-0.79318,-3.497,0.99232,1.9361,-0.20653,-0.79317,-0.66562,-1.2013,0.45662,0.12504,0.76275,0.71173,-0.3851,-0.2065,-0.15545,-0.28301,-0.53815,0.048536,3.4155,-0.002461,-1.2013,0.48216,-0.30856,-2.1961,1.2984,-0.86967,1.0435,1.4515,-0.76769,-1.2524,-1.8136,2.0381,-0.33409,-0.5126,-0.94625,1.1964,0.38015,-0.002467,-0.33409,-0.027944,1.375,0.7373,-0.89519,-1.0738,-1.2779,1.5025,1.1964,-0.81869,0.81378,-0.94627,-2.6042,0.12506,-0.9718,-0.79321,0.50771,1.0178,0.68621,-0.002448,0.12508,1.375,-0.46159,-0.23205,-0.25756,0.4822,0.048555,-0.9207,-0.79319,-0.10453,-0.002479,-0.002472,-0.20656,0.099577,0.73721,-0.9462,-0.25748,-0.61465,1.9616,0.63517,-1.9666,1.9361,0.074051,-0.79316,0.43119,-0.97177,1.7321,-0.181,-0.053464,-0.23209,0.43114,-0.6147,-0.35958,1.2729,-0.12999,0.3037,-0.89523,-0.64015,-0.97177,-0.38511,-0.69117,0.50767,0.35464,-0.15549,0.68622,0.35464,-0.69115,-1.0228,0.89031,-0.76769,-0.33409,-0.18104,-0.30852,2.4718,0.3036,-0.84424,-1.0228,-1.1248,-2.1196,3.6196,2.0636,-0.027987,2.1912,-1.4054,-1.4564,-0.027907,-0.79319,-0.41061,-0.23207,0.35461,-0.3341,0.50771,0.78828,-0.66567,-0.30856,2.2167,0.63523,-1.0738,-0.15543,-0.92073,0.09954,1.5279,0.15052,-0.66568,-0.46161,-0.86972,-0.79316,-0.51262,-0.58918,2.1147,0.25266,-1.7114,-1.0227,0.7117,0.15056,0.38011,-0.28308,0.17607,-0.13,2.8544,0.1506,-1.0993,0.43118,-0.94623,-0.92074,-0.7422,0.38013,0.12509,-0.71663,0.27819,-0.7167,4.3083,-0.28311,-1.482,-0.35959,0.6607,-0.28306,-1.2268,-1.5839,0.25262,0.22713,-0.12999,0.22712,-0.027889,-0.69121,1.0178,2.0636,-0.46164,-1.4564,0.17604,0.074075,-0.33408,-0.38513,-0.86971,-1.2268,-0.28301,5.5073,-0.15552,-0.61467,-1.4819,-1.4054,-1.5074,-0.51265,-0.53814,1.1454,0.12501,-0.43611,2.6504,-0.078977,0.1506,0.40566,-0.81869,0.96683,-0.46162,-0.94627,-0.027993,-0.64018,-0.3851,2.7014,0.22715,-0.43612,-1.1248,0.73725,-1.2524,-1.0993,2.4208,0.81379,0.96685,-1.686,-1.533,-0.10447,0.17609,-0.38511,0.099546,-0.23202,-0.33405,0.96683,2.0126,-0.58916,1.2219,-0.12999,-0.30852,-1.3799,0.96683,-0.23201,-0.46162,0.35464,1.0178,0.60973,-0.84417,-1.6605,0.32908,-0.71673,-0.92079,1.5535,-0.078953,-0.20649,-0.25753,-0.15552,0.94128,0.55869,1.9106,-0.76771,-0.76766,0.023127,0.048561,-0.53812,-0.6402,0.78819,0.2271,0.30364,-0.9973,-1.0993,0.50769,-0.56364,1.375,1.9871,-1.635,-0.64016,-1.8645,0.25262,-0.74215,-0.84423,1.2474,0.27813,0.48218,0.15057,-0.25756,1.6045,-1.1503,1.7831,1.2474,0.048555,-0.81874,-1.737,0.43119,-1.2014,-1.7115,2.1147,-0.99726,1.2474,0.17611,1.2984,-0.99729,-1.8645,0.12509,-0.64015,0.25265,-0.25757,0.99233,-0.3851,1.1199,-0.18101,0.3291,1.2729,-0.64015,-0.35958,-0.41058,0.43119,-1.2779,0.66076,0.96683,-1.635,-0.51262,-2.5787,-0.18109,3.4155,2.4718,-1.3544,-2.1196,-1.5584,-0.99726,-0.66571,-0.89527,1.0943,1.681,0.86479,0.43117,-0.30855,-0.43607,-0.61463,-1.2013,0.50768,2.1657,1.9616,-0.97177,-1.7115,-0.58915,0.22713,-0.71664,-1.7625,0.83926,1.8085,0.32914,-0.23207,0.12511,-1.0228,-0.99726,-1.2523,-1.3288,1.375,0.20161,0.96677,2.2676,-0.15559,-0.13002,-1.4309,-0.92072,-0.2065,0.12507,-0.43609,0.66077,0.20161,-0.5636,-0.12996,-0.15554,0.20153,0.38011,-1.5075,0.53317,-1.2267,1.222,-0.13005,1.2474,-0.23208,-0.74218,-0.053495,-0.38511,-0.35955,-0.43602,-0.51258,1.5534,2.0381,-0.18102,-0.48708,-0.92072,1.2985,-0.89526,-0.94627,0.35467,-0.13004,3.3645,-0.43609,-0.35958,1.0178,-1.0738,-0.64017,-0.79321,-0.64014,-0.23202,-0.41058,-0.5381,2.9054,2.2932,-0.76767,-0.51265,-0.46165,0.45668,-0.13002,-0.028023,-0.97177,0.27813,-0.002472,1.0434,-0.46157,0.2016,-1.3544,-1.4309,-0.053513,-1.1503,1.2729,0.15059,0.4312,-1.3288,-0.61465,2.6248,-1.3544,0.55872,0.9923,0.76269,0.17609,0.30368,-0.84414,-2.043,-1.2013,0.91575,1.1708,-0.89532,-0.41066,1.6555,-0.1045,-0.53811,-0.5891,-0.69113,1.1709,0.78827,-0.71668,-0.12998,0.9924,-1.2268,0.22707,0.50768,0.023023,0.15056,0.27812,-0.48711,-0.94627,-0.56367,-0.181,0.38019,0.5587,0.63522,0.55869,-0.71674,0.66072,-0.56363,0.22715,-0.15552,0.35467,0.38018,-0.053513,-0.61469,-0.30858,3.288,-0.15548,-0.97174,-1.0228,-0.53812,-0.86975,0.83932,0.50769,-0.94628,0.25258,-0.53816,-0.07899,-1.5329,3.033,-0.38503,-0.48711,-1.0228,1.1453,-0.69121,0.66075,-0.25756,-0.48712,-0.15554,1.0178,-0.35953,-0.43607,0.81379,0.81377,1.7576,-1.6349
