-0.10449,0.27812,0.048531,-0.002467,-0.12999,-0.12999,-0.07899,0.023023,0.099546,0.074038,-0.15549,-0.053476,0.074062,0.27815,-0.20652,-0.13001,0.02301,-0.13002,-0.10449,0.048549,0.074062,-0.10449,-0.027969,0.20158,0.074044,-0.23201,-0.12997,0.20155,0.023035,-0.12999,0.074044,0.12504,-0.027993,-0.053464,0.023047,0.048536,-0.07899,-0.05347,0.023041,0.099552,-0.027969,-0.07899,-0.053482,0.12505,-0.053488,0.099559,0.17611,-0.18098,-0.28303,-0.15553,0.099564,-0.1045,0.12505,-0.002479,-0.078996,-0.002461,-0.28298,0.17606,-0.053482,0.023029,0.048531,-0.053488,0.43118,0.43117,0.048536,-0.07899,-0.23204,-0.38506,-0.35956,0.074038,0.023035,-0.027962,0.099559,0.074051,0.22709,0.09957,-0.15549,0.099564,0.048536,-0.07899,-0.053488,0.023029,0.074051,0.074057,-0.10447,-0.15551,0.048543,0.099559,0.074051,-0.078977,-0.10447,0.074051,0.15056,0.074057,-0.12999,-0.15549,0.20155,-0.027969,-0.027974,-0.027969,0.023047,-0.13001,0.35465,0.32913,-0.079002,-0.20653,-0.28303,-0.18102,-0.10451,0.38015,0.20162,-0.23202,-0.18103,-0.13,0.023029,0.074044,-0.002467,-0.002448,-0.078984,0.074038,0.023041,0.09957,0.12509,-0.002467,0.074038,0.023029,-0.13,-0.18101,-0.02798,0.12505,0.074038,0.048543,-0.10449,-0.10449,0.15056,0.048536,-0.053446,-0.027969,-0.002472,-0.002467,0.12505,0.048543,0.023035,-0.10449,0.048543,0.15056,0.048555,-0.25749,-0.053482,-0.05347,0.099552,0.17607,-0.002467,-0.078972,-0.027969,0.048536,0.023047,0.023054,-0.05347,-0.15551,0.048531,-0.15551,0.43118,-0.053488,-0.027998,-0.1045,-0.1555,-0.181,0.53319,-0.002479,-0.15552,-0.18101,0.15059,0.023059,-0.25753,-0.10449,0.023035,0.099546,0.023047,0.048555,-0.10447,-0.078972,0.048543,0.023035,0.023023,0.048536,-0.002467,-0.002461,-0.078972,-0.05347,-0.078972,-0.13001,-0.02798,0.074038,0.023041,0.048549,0.048567,-0.078972,-0.1045,-0.027969,0.074044,0.074057,0.12507,-0.10448,-0.078996,-0.027974,0.099546,0.22708,-0.002467,-0.002472,-0.12999,-0.28302,-0.30852,0.50765,0.68621,-0.25753,-0.20653,0.048525,-0.15551,-0.1555,0.023041,0.22707,0.074062,-0.18099,-0.078977,-0.027987,0.099546,0.048525,0.023041,-0.02798,0.17611,0.4822,-0.33407,-0.15553,-0.079008,-0.13,-0.078984,-0.181,-0.002472,0.048549,0.2271,0.15057,0.074057,-0.027974,-0.10449,-0.02798,0.023029,-0.002461,-0.002467,-0.027962,-0.07899,-0.027987,0.048525,0.15057,-0.027956,-0.23199,0.02301,-0.079002,0.12504,-0.10445,0.12506,0.023047,-0.15551,-0.078984,-0.002479,0.45667,-0.20652,-0.07899,-0.0535,-0.10449,0.40566,-0.12999,-0.20652,0.45665,-0.027974,-0.10448,-0.18101,-0.079008,-0.053495,-0.12999,0.048555,0.12506,0.20158,-0.078972,0.023041,0.074051,0.099552,-0.18101,-0.1555,0.099559,0.15057,0.1761,0.074044,-0.28303,-0.18101,-0.13001,0.023035,0.17609,0.27811,-0.1045,-0.25753,-0.13,-0.027969,-0.078953,0.25259,0.099552,-0.10449,-0.10447,0.12506,0.15055,0.048543,-0.05347,-0.05347,0.099564,-0.23202,-0.20651,-0.002448,0.25259,0.023041,-0.078996,-0.12999,-0.07899,-0.053482,0.074038,0.048536,0.12507,0.099564,-0.078966,-0.078972,-0.1045,-0.07899,0.45667,0.12508,-0.38509,-0.078977,-0.20655,-0.10451,0.20158,-0.15552,0.22708,0.17606,-0.02798,-0.10446,-0.027938,-0.078953,0.09954,0.048536,-0.053476,0.099552,0.15056,-0.05347,-0.18098,0.099552,0.09954,0.048531,-0.078977,-0.078977,0.048536,0.099552,-0.027974,-0.07899,0.048536,0.09957,0.048543,-0.027969,-0.079002,-0.027987,0.17609,0.048543,-0.10449,-0.1045,-0.002467,0.074044,0.074062,-0.07899,-0.10448,-0.23202,0.45667,0.5332,-0.13002,-0.30858,-0.20653,-0.13001,-0.027974,-0.078966,0.023065,0.023041,-0.053476,-0.18097,0.27808,0.17605,0.15056,-0.002443,-0.12996,0.074044,-0.002479,0.048525,0.048531,-0.053482,0.048549,0.023047,-0.053464,-0.053476,-0.002467,0.048531,0.099552,-0.05347,-0.13,0.15057,0.099559,0.023029,0.074062,-0.05347,-0.13001,0.074051,0.20158,-0.027974,-0.23201,-0.053482,0.048531,0.023035,0.023041,-0.053476,0.099583,0.023029,0.048531,-0.053476,-0.181,0.30363,-0.002479,-0.027962,0.17609,-0.18101,0.35464,-0.30856,-0.35956,-0.079014,-0.027969,-0.027962,-0.027956,0.023041,0.12507,0.023035,-0.053464,0.15057,0.023035,-0.053476,-0.078977,-0.15548,0.048531,-0.002467,0.023017,0.023035,-0.078959,-0.002467,-0.13001,-0.07899,-0.027987,0.074044,-0.027969,0.023047,0.048543,0.074062,-0.053464,-0.078984,-0.10449,-0.002467,0.023035,0.32912,-0.053476,-0.12999,-0.13,-0.002467,0.12505,0.17607,0.023041,-0.078984,-0.15551,-0.027993,0.074038,0.048549,0.099564,-0.078972,-0.078972,-0.1045,0.048531,0.099534,-0.027969,-0.2575,-0.05347,-0.20649,0.17606,0.048525,0.20159,0.15059,-0.002467,-0.20653,-0.002467,0.19971,0.1742,-0.1045,-0.13001,-0.053482,0.074051,-0.053458,-0.05347,-0.027962,0.023054,0.5842,-0.41054,-0.028018,0.048518,0.023035,-0.002461,0.023059,-0.078966,-0.078984,0.048536,-0.027969,0.023047,-0.05347,-0.078996,0.2781,0.023041,-0.027974,-0.027974,-0.002467,-0.10448,0.048536,-0.02798,-0.15549,0.099521,0.15054,0.074026,-0.027974,0.35465,0.35466,-0.10447,-0.18103,-0.23205,-0.25754,-0.23202,0.27811,0.074062,-0.1045,0.023035,0.048536,-0.002479,0.048549,0.099559,-0.078972,0.023047,0.074038,0.09954,0.048543,0.048543,-0.12998,-0.053476,0.023029,-0.13,-0.053488,-0.07899,-0.053488,-0.053476,0.09954,0.12507,0.023047,0.074057,-0.15553,-0.28307,-0.20653,0.074087,1.1964,-0.002479,0.20158,0.83927,-0.18102,-0.71668,-0.7932,-0.58916,-0.41058,-0.1045,0.074081,0.25262,0.30363,0.2526,-0.027962,-0.078977,-0.74218,0.60973,2.6248,0.32913,-1.0993,-0.89526,-0.1555,1.63,0.68626,-1.3288,-1.5329,-0.10452,-0.89524,0.40562,4.8694,-1.8901,-1.6349,-1.737,-1.2778,-0.86971,1.2219,1.2474,1.4005,-0.027987,-0.05347,0.25267,0.099497,-0.38511,0.60971,2.8289,-0.64016,-1.8135,-1.1758,1.5025,2.0892,-0.71663,-1.5075,-1.3034,-0.94624,-0.35953,-0.283,-0.2575,0.15057,0.25258,0.94133,0.81376,0.58421,0.50764,-0.181,-0.71668,-0.13005,0.48219,-0.35956,-0.58913,0.60976,1.9361,1.1709,-2.3747,-1.6605,-0.20657,1.1964,-0.51264,-0.84418,-0.41058,-0.15553,0.1506,0.45667,0.53321,1.1964,0.58422,-0.66569,-0.56367,0.12503,0.73733,2.0127,-0.38508,-1.89,-0.89528,0.71179,1.1199,-0.4361,-0.43613,-1.2779,-0.053482,0.12509,0.6352,-0.69117,0.43117,-0.027956,-0.28302,-0.76771,3.7471,-0.053495,-0.12999,-1.3288,-0.71668,-0.46161,0.09957,0.25259,2.2167,1.375,-0.81869,-0.99725,-0.15555,-0.4361,-0.38508,-0.33407,0.22705,-0.35958,0.66078,2.0637,0.71178,-0.56364,-0.97177,-0.79324,-0.89527,-1.0228,1.0434,-0.7422,0.55867,2.0126,0.53321,-0.6146,-1.1503,-0.92074,0.60971,0.15057,0.023047,-0.25755,0.074057,0.3036,-0.13002,-0.30858,-0.053476,0.048536,-0.35955,-0.05347,0.45666,-0.33403,0.30364,-0.002448,0.60972,0.20157,-0.48716,-0.61467,1.63,-0.28303,-0.61463,-0.48714,-0.48713,-0.027969,0.89034,0.99231,-0.027969,-0.18101,-0.94624,-0.053415,0.63518,0.25258,-0.38509,-0.33407,-0.10451,-0.053513,-0.078966,0.45667,0.68624,-0.41057,0.12507,0.43115,0.3291,0.5332,-1.3289,-0.79318,-0.99721,-0.28303,0.43117,-0.46161,0.96682,0.9668,0.48218,-0.43611,-0.7167,-0.66568,-0.74218,0.38014,0.68624,-0.23204,0.048531,0.048592,-0.053476,-0.053482,0.45666,0.2526,0.2781,0.15055,-0.078972,-0.79314,0.048536,0.66069,0.38013,0.43121,-1.2012,-0.6402,-0.1556,-0.41059,-0.002448,0.58422,0.048567,-0.027956,0.048543,0.20155,0.40564,0.099577,0.12506,0.023017,0.38017,-0.30854,-0.28302,-0.20653,-0.33409,0.27812,0.1251,-0.25753,-0.053433,-0.002472,0.53317,0.53317,-0.30858,1.3749,-0.94627,-1.3288,-0.35957,0.023023,0.73726,-0.48708,-0.53814,0.40563,0.55872,0.22712,0.30363,-0.053488,-0.97176,0.074026,1.324,1.4515,-0.41057,-0.79319,-0.53816,-0.41061,-0.30856,-0.027987,0.15056,0.048555,0.099564,0.22708,-0.13001,-0.078977,0.099601,0.12504,1.7831,-0.74218,-0.33406,-0.46156,0.43115,-0.053513,-0.15552,-0.35959,-0.43608,0.81378,-0.13002,-0.53808,-0.10446,0.63517,0.048525,-0.1555,0.074038,-0.05347,0.32915,-0.61465,1.5025,0.66074,-0.7167,0.15059,-1.2523,-0.84422,-0.53812,2.3187,-0.25756,-0.61468,0.15056,-0.23203,-0.41057,0.22713,0.099564,-0.20654,0.50767,0.45666,0.89033,-0.053464,-0.13,-0.58915,-0.38511,-0.002491,-0.053488,-0.35953,-0.18099,-0.027987,0.17607,0.40565,0.099546,0.023059,-0.48706,-0.69118,0.78825,0.50771,1.0943,-0.25754,0.17609,-0.7932,-1.3289,-0.7677,-0.027993,1.3239,0.48219,-0.61463,0.38015,-0.33407,-0.46161,-0.25757,1.1964,1.0433,-0.99727,-0.20653,-0.43606,0.32915,0.15058,-0.13003,0.38012,-0.053476,-0.81868,-0.079026,0.048531,0.60973,0.73725,-0.48712,-0.35953,-0.15553,0.81379,-0.51265,-0.61467,-0.1555,0.48222,0.66074,-0.33407,-0.53812,0.12507,0.96681,-0.15553,-0.002461,-0.84422,-0.002485,0.15059,0.048573,-0.18103,-0.23204,0.27809,0.27811,0.43118,0.53318,-0.48712,-0.23201,1.2984,-0.51262,-0.99728,-0.38512,-0.56365,-0.46157,-0.33404,0.15062,-0.10447,0.63518,0.60967,0.40565,0.45665,0.2271,-0.41058,0.074069,0.50769,0.89033,0.81379,-0.94625,-0.97177,-0.66569,-0.48713,-0.002479,-0.027962,-0.027969,-0.027974,0.023035,-0.12999,0.58422,-0.053495,0.76274,-0.053513,0.074051,-0.30854,0.66076,-0.33406,-0.79321,0.048531,0.53317,-1.0993,0.22712,0.99233,-0.23207,-0.027974,-0.053476,-0.078972,-0.69119,1.1709,-0.25754,-0.10452,-0.10449,-0.181,-0.28306,-0.15553,1.0178,0.48219,0.99234,-0.002485,-0.79322,-1.1248,0.45671,-0.48711,-0.46161,0.38013,0.81378,-0.48713,-0.64017,0.91584,-0.15551,-0.30858,0.12506,0.12505,0.099583,0.25263,-0.35956,-0.33404,-0.078996,0.074033,0.12505,0.099552,0.2271,0.023047,-0.027969,0.099552,0.27812,-0.10447,-0.48711,-0.61468,0.099559,1.1964,1.9361,-0.35957,-0.84422,-1.5584,-0.76771,0.76274,0.12506,0.1506,0.099588,-0.10454,0.2271,0.60973,-0.13001,-0.23203,-0.13002,0.6608,0.40565,-0.25754,0.48221,-0.61466,-0.3341,0.45666,0.30363,-0.41058,-0.64015,0.78825,-0.027962,0.023035,-0.078996,-0.41058,0.68625,0.074051,0.22708,-0.1045,-0.33409,-0.23202,-0.10448,-0.053495,-0.18102,0.5332,1.1199,0.50772,-0.20655,-0.74218,-0.84424,0.89027,-0.4106,-0.38509,0.63526,0.04858,0.048518,-0.3086,-0.23205,-0.33405,-0.07899,0.40566,0.78829,0.60974,-0.027974,-0.61462,-0.66565,-0.66565,-0.41061,1.2219,0.60969,0.35465,-0.4106,-0.4871,-0.43609,-0.25756,-0.10449,-0.18103,-0.15552,0.35465,0.78828,1.4005,-0.43609,-0.43613,-0.35958,-0.35954,-0.15551,0.099534,-0.053482,-0.027962,-0.41057,0.048555,0.1506,-0.1045,1.8851,0.6352,-0.81875,-0.79322,-1.2013,0.12508,0.5587,0.89032,-0.48711,-0.92076,-0.28307,1.6045,0.27811,-0.76772,-0.18104,0.15059,0.5587,-0.15553,0.5332,0.48219,-0.56365,-0.74218,-0.69116,-0.46159,0.074051,0.45667,0.60971,0.27811,-0.078996,0.023029,-0.20653,-0.02798,-0.13,-0.027969,0.20159,0.38013,0.09957,-0.35957,-0.078977,-0.28305,0.99234,-0.46156,0.35459,-0.58917,-0.13001,0.27815,-0.23202,-0.41058,-0.13002,-0.15554,-0.53812,1.7576,0.60971,0.15055,-0.89523,-0.00243,0.099564,-0.6402,-0.15553,-0.027962,-0.23205,-0.053488,0.048567,0.5332,-0.1045,0.91579,0.25262,-0.69116,-0.002497,0.73725,0.074069,-0.20653,-0.48712,0.023023,-0.48711,-0.64018,0.32913,0.89032,0.023078,-0.30855,-0.6657,-0.002491,1.4005,1.2984,-0.7422,-0.86971,-0.64015,-0.25754,-0.30855,-0.20653,-0.20652,0.5332,0.94131,0.30361,-0.15549,0.099552,0.32912,-0.23207,-0.25757,0.074106,0.15059,-0.92071,0.12507,0.66072,-0.13,-0.15554,-0.053519,-0.079002,-0.027969,-0.027962,0.2271,-0.002472,-0.41055,-0.35954,0.76277,1.9361,0.45668,-1.0993,-0.38511,-0.89527,-0.69116,-0.79321,0.86479,1.7831,-0.5126,-0.61465,-1.0483,0.89029,1.0944,-0.25753,-0.43609,0.048549,-0.15553,-0.079008,0.43116,0.12508,0.12507,-0.56362,-0.43611,-0.20652,0.45667,0.023029,-0.053513,-0.15551,0.27812,0.48217,-0.43611,-0.25753,0.66077,-0.28304,0.048549,-0.69119,0.2781,-0.25756,-0.23201,-0.053513,-0.002412,0.58424,-0.10451,-0.53814,0.55866,0.38014,-0.56366,0.22709,0.76277,-0.13002,-0.20655,-0.74218,0.32914,-0.18104,0.83928,1.6045,-0.41056,-0.8187,-0.61465,-0.30854,-0.13001,-0.053495,0.099546,0.40565,0.73725,0.023054,-0.43607,-0.25756,0.22709,0.81377,-0.41055,0.099577,0.2271,-0.58914,-0.30856,-0.25756,-0.027974,0.048561,-0.20653,0.048561,-0.61463,0.15057,0.099577,0.2271,0.32912,-0.13,-0.33407,0.48216,1.9361,-0.71667,-0.84422,-0.28304,-0.027969,-0.71669,-0.76766,0.17609,1.528,0.2526,-0.35959,-0.13001,-0.48708,-0.33403,0.074075,0.048506,0.074062,0.63523,-0.48711,0.53318,-0.30856,0.048561,0.074051,-0.56365,0.38016,0.78829,0.25262,-0.89522,-0.41062,-0.30855,-0.30852,-0.18107,-0.079026,0.68626,0.15059,-0.053495,1.4259,0.32914,-0.69118,-0.8442,-0.71668,-0.35959,0.22711,-0.002454,1.324,-0.079002,-0.20654,0.4567,-0.33407,-0.28308,0.15058,-0.25751,-0.027969,0.68624,0.22709,-0.56364,0.30364,-0.33406,0.2781,0.55871,0.023041,-0.46162,-0.41058,-0.23202,-0.4106,0.09954,-0.027993,0.048567,-0.002418,0.09954,0.45666,-0.181,0.27808,0.38014,-0.02795,0.023059,-0.002491,0.048561,-0.1045,0.63521,-0.61462,-0.25756,-0.43609,-0.35958,-0.99726,-0.18101,2.0891,2.9309,-0.25755,-1.3798,-1.2778,-0.97177,0.074038,-0.13,0.04858,0.48214,0.048525,0.55869,-0.30853,0.2016,0.58417,0.71175,-0.53809,-0.20653,0.68625,0.48218,-0.46162,-0.81871,-0.53813,-0.4106,-0.23206,-0.25756,-0.38508,0.35463,1.63,0.89032,0.074057,-0.61466,-0.81873,-0.64016,-0.48711,0.023047,0.60969,0.15059,-0.053464,-0.002461,0.38014,-0.13,-0.46162,0.35465,0.50768,0.32914,-0.41061,-0.38509,0.074038,-0.20652,-0.23207,1.5025,-0.74217,-1.3799,-0.76771,0.76279,0.71176,-0.25753,-0.48714,-0.28308,-0.1045,-0.002448,0.023054,0.25262,0.20161,0.17611,0.15059,0.099552,0.3036,0.099552,-0.13,-0.20653,0.20159,-0.4871,-0.20653,0.20158,0.2526,0.099552,-0.2065,-0.61465,0.048555,-0.10446,-0.10452,1.3494,1.1454,-0.69115,-0.64015,-0.61467,-0.58914,1.0944,-0.027974,-0.28307,-0.28303,-0.18098,0.048518,0.25259,0.43116,0.43115,-0.43609,0.35466,0.048536,-0.30854,-0.66567,0.32912,0.76277,0.81381,0.27811,-0.58914,-1.0483,-0.43612,-1.0483,-0.51262,-0.28304,0.17609,0.35463,0.30364,0.27815,0.3291,1.1198,0.099552,-0.18103,-0.23202,0.78828,-0.10449,-0.51261,-0.25757,-0.027987,0.96682,-0.69116,-0.64012,-0.25753,0.15054,0.27809,0.2526,-0.15549,-0.46158,0.63522,0.43117,-0.18103,-0.41058,-0.10451,0.15058,-0.002472,-0.027969,-0.002467,0.048567,0.66073,-0.078996,-0.027998,0.4057,-0.10451,-0.35956,-0.53812,-0.33406,0.58422,1.1454,-0.48711,0.30363,-0.74216,-1.1248,-0.05347,2.1912,0.099546,-0.3596,-0.74217,-0.4361,-0.1555,-0.027998,0.40563,0.38016,-0.002418,0.12507,0.25259,0.27807,0.12504,-0.002461,-0.078972,-0.002461,-0.027987,-0.30856,-0.53811,0.99234,1.2729,-0.99725,-1.1248,0.023047,0.099534,-0.53815,-0.13001,0.17609,-0.079008,0.45668,0.40569,0.25261,0.48216,-0.38511,0.15058,0.048555,-0.20652,-0.053495,-0.12999,0.12507,0.12507,-0.002497,-0.46161,0.048555,0.5587,1.2729,-0.25754,-0.61462,-0.38505,0.20156,0.86477,-1.0483,-0.61462,-0.12998,-0.002491,0.25256,0.074038,-0.10449,0.5332,0.1506,0.27814,0.2271,-0.13,-0.15552,-0.053495,-0.002479,0.074057,-0.027987,-0.81866,-0.38509,0.8648,0.83927,0.12507,-0.15554,-0.20652,-0.97177,-0.84422,0.40568,-0.89522,0.2526,1.0433,0.45665,-0.41054,-0.13,-0.053482,-0.23203,0.099559,0.45665,0.099534,0.048561,-0.15548,-0.35954,-0.053519,-0.078984,1.0179,-0.027969,-0.23204,0.023023,-0.027969,0.58419,-0.30856,-0.7932,-0.76769,-0.64014,-0.23201,0.48218,0.25261,0.3036,0.09957,0.22711,0.099564,0.15059,0.20159,-0.35957,-0.58914,1.4515,0.30363,0.40565,-0.84424,-0.79321,-0.38505,-0.35953,-0.20653,-0.002497,-0.15552,0.71175,0.40566,0.023072,-0.33405,-0.53811,0.17611,0.53316,1.7065,-0.76768,-0.53812,-0.4871,0.022998,-0.027974,-0.86972,0.76275,0.099546,-0.07899,-0.027974,-0.07899,0.2526,0.35466,0.25262,-0.23204,-0.18103,-0.43609,-0.027993,0.43117,0.074057,-0.92074,0.17611,1.2474,-0.10452,-0.61465,-0.3851,-0.48713,0.17609,0.5332,0.17612,0.38016,-0.23204,-0.13002,-0.20654,-0.30856,0.50769,-0.078953,1.1709,0.023023,-0.61463,-0.35957,-0.38511,-0.079008,-0.13001,-0.15549,-0.027956,-0.078977,0.40566,-0.23204,0.074044,0.68625,-0.078996,0.94132,-0.53812,-0.64012,-0.20657,-0.48712,-0.23205,1.2474,0.023041,-0.41054,-0.10451,-0.28304,-0.079033,0.25259,0.71176,-0.53814,-0.46158,0.12509,-0.15553,0.30365,-0.18098,0.20156,0.53317,-0.43612,-0.23203,0.2016,0.27815,-0.23202,-0.69118,-0.079008,0.27811,0.38015,-0.10449,-0.13001,0.023041,-0.002467,0.38013,0.50767,-0.05347,-0.41058,0.12512,-0.15556,-0.56367,0.68622,0.074057,-0.38507,-0.79316,-0.5381,0.48214,0.12507,-0.078996,0.32915,-0.15551,0.25262,-0.10452,-0.18106,-0.35956,0.099613,0.73728,-0.053495,-0.43612,0.15057,-0.56364,0.71175,-0.20653,-0.23202,-0.5126,-0.43607,-0.12999,0.048536,0.15056,0.15058,0.35464,-0.027969,-0.12999,-0.0535,-0.23202,1.2219,0.27808,-0.13001,-0.46157,-0.56362,-0.28306,0.074044,-0.94625,0.048561,0.71176,0.58422,-0.25755,0.099552,0.76277,0.048531,0.023047,-0.38508,-0.43609,-0.5126,0.25259,-0.15556,0.35463,0.4312,0.048567,0.023041,-0.002472,0.48216,-0.33409,-0.4616,0.58424,-0.13003,0.20158,-0.25753,-0.20652,-0.43607,0.22712,0.81379,-0.53816,-0.35957,1.783,-0.38509,-0.66567,-0.13002,0.074075,0.2016,0.45666,-0.38507,-0.35959,0.09954,-0.28304,-0.15549,-0.002454,0.32913,0.40568,-0.181,-0.46165,0.35465,1.2984,0.17609,-0.69121,-0.56362,-0.41057,-0.48708,-0.002485,0.60969,0.048573,0.71177,-0.1045,-0.38508,-0.28305,-0.1045,0.2526,0.20161,-0.18105,0.60973,0.17611,-0.58914,-0.64016,-0.23203,0.22708,1.528,0.58421,-0.61465,-0.078959,-0.41058,-0.15554,-0.81874,-0.15549,0.074111,0.58422,0.27808,0.22708,0.38014,-0.25753,0.023047,0.023035,-0.30856,0.22711,0.15059,-0.13001,-0.30858,-0.0535,-0.13001,-0.002418,-0.181,-0.079021,-0.38508,-0.002479,1.2219,0.27812,-0.33405,-0.81869,0.35463,0.40566,-1.1758,-0.4106,0.17611,-0.13,0.35464,0.20155,0.023023,-0.027969,0.25265,-0.30855,0.074057,0.12505,-0.18099,-0.43608,0.2781,0.50768,0.27812,-0.23203,0.099564,-0.002479,-0.69115,-0.1555,0.91582,0.20156,-0.23205,0.99232,-0.71666,-0.48705,-0.4106,-0.15556,-0.28308,0.5332,0.58422,-0.46158,-0.02798,0.45666,-0.15549,0.48219,-0.23202,-0.13,0.074044,0.48218,0.074051,-0.71668,-0.28306,0.12508,0.048549,-0.35957,0.22713,0.20157,-0.18105,-0.13,0.099588,-0.10449,-0.053495,0.2526,0.73726,0.023023,0.048573,-0.18103,-0.71664,0.25255,0.17605,0.074051,0.30366,-0.23202,-0.20652,-0.33408,-0.7422,1.1964,-0.66564,-0.078941,1.2984,0.35464,-0.48714,-0.81871,-0.4106,-0.33405,0.27814,-0.18101,-0.18101,0.32913,0.27809,0.048525,0.023059,0.074087,-0.25757,0.35465,-0.33408,0.35464,0.68622,-0.41061,-0.02798,-0.23204,-0.23202,-0.66562,-0.81868,0.30358,2.3442,0.40565,-0.46159,-0.76767,-0.30852,-0.15551,-0.35959,-0.23206,0.099559,0.50769,0.099583,0.048573,0.76275,-0.33406,-0.20655,-0.027993,0.023041,-0.13,-0.43606,-0.079002,0.63523,1.0434,-0.74221,0.25261,-0.46158,-0.58916,-0.20653,0.1761,0.78836,0.0485,-0.18107,-0.33408,-0.33404,-0.25753,-0.053482,0.94133,-0.002479,-0.13001,-0.12999,0.023041,-0.027962,0.048549,-0.002479,-0.35959,-0.23203,1.0434,0.15057,-0.9973,1.3239,0.58423,-0.053458,-0.64017,0.15057,-0.53814,-0.48711,-0.33409,-0.18102,0.099552,0.20161,0.32914,0.15059,0.2271,0.30363,0.15057,0.12507,0.023029,0.048561,-0.053495,-0.35957,-0.05347,0.048536,-0.027969,-0.053451,-0.002485,0.023035,-0.027962,-0.053488,0.074044,-0.181,-0.38509,-0.25758,-0.4361,1.63,3.033,-0.027969,-1.1248,-1.4819,-0.30855,-0.92077,-0.6146,-0.20649,0.38011,0.38008,0.3801,0.32916,0.78832,0.17611,0.3291,-0.053482,-0.13002,-0.10451,-0.28306,0.023059,-0.10448,0.63523,-0.64014,-0.8442,0.023035,0.09954,-0.46163,0.76275,-0.79319,0.73728,0.5332,0.22708,-0.61467,-0.33408,-0.18103,-0.25751,0.048512,0.58421,0.15055,-0.027962,-0.15549,0.2016,0.43118,0.023059,0.022998,-0.3851,-0.66564,-0.078953,0.66074,-0.13,-0.46158,-0.33412,0.38014,-0.56365,0.40569,-0.25754,-0.20652,0.83928,0.83928,-0.74218,-0.38506,-0.18101,0.12507,0.12504,-0.027993,0.023035,-0.10449,0.38016,0.35463,0.17609,-0.18103,0.12506,-0.33407,-0.46158,0.15059,0.12507,0.2271,0.023023,-0.4106,0.12508,0.12507,-0.4361,0.58419,-0.12999,-0.002423,-0.25754,1.2474,-0.30856,-0.33409,-0.18098,-0.053439,-0.23207,-0.028018,0.02301,0.04858,-0.2065,0.27812,0.32913,-0.33404,-0.46159,0.55868,0.66072,0.074069,-0.053495,-0.61462,-0.53812,-0.30854,0.15055,-0.002485,-0.64014,0.15058,0.38013,1.0434,0.09957,-0.33405,-0.0535,0.17609,0.12508,-0.61464,-0.46159,-0.35956,0.20158,0.40565,-0.23205,-0.027974,0.53318,-0.53817,0.25262,0.25267,0.60972,-0.002467,-0.4616,-0.61463,-0.28306,-0.078984,-0.002467,0.40565,0.30363,0.023029,0.60969,0.09957,-0.15551,-0.23203,-0.20655,-0.13001,-0.25753,1.1964,-0.10452,0.68624,-0.58911,-0.64015,0.048531,-0.33408,-0.30856,0.25261,0.048536,0.22713,-0.51262,0.9158,0.6097,-0.38508,-0.12999,-0.43611,-0.38511,0.32914,0.71173,0.20158,-0.23202,-0.18103,0.099534,-0.002454,-0.20653,-0.13001,-0.12999,-0.15548,0.17609,0.22706,0.099564,0.68625,-0.053476,-0.61466,0.45669,-0.48712,-0.027974,-0.10449,0.023041,0.099564,-0.28303,-0.23203,-0.25754,0.074057,0.2016,-0.053476,-0.181,0.22709,-0.30856,0.22708,0.58419,0.73727,-0.38508,-0.48714,-0.053495,0.12506,-0.28303,-0.43609,0.66074,0.27812,0.074044,-0.30855,-0.30855,-0.35956,0.43115,0.32913,0.27812,-0.46162,0.15056,-0.41057,0.074081,0.099564,-0.18101,0.73726,-0.15546,-0.28306,-0.18105,0.02301,0.43115,0.32915,-0.4871,-0.61465,-0.18103,1.1709,0.074044,-0.33406,-0.74217,0.43115,0.45667,0.099559,-0.41059,-0.48711,0.25267,0.023017,-0.12999,-0.10451,0.099534,0.17609,0.48216,-0.48712,0.71177,-0.25753,-0.07899,0.30363,-0.25751,-0.30854,0.20155,-0.10449,-0.23204,0.3291,-0.35959,0.15058,-0.35958,0.1761,-0.38504,-0.30855,0.20159,0.38017,-0.20652,0.40565,0.43118,-0.181,-0.30858,-0.027987,-0.002461,0.023023,-0.18103,-0.10448,-0.053482,-0.30856,-0.002454,0.48219,1.1454,-0.25754,-0.33405,-0.15553,-0.35956,-0.48712,-0.1045,0.73727,0.09954,-0.23199,-0.12996,-0.078984,0.099515,-0.053513,-0.1045,-0.078972,0.20159,0.04858,-0.28305,-0.46159,1.0689,0.58417,0.38014,-0.74218,-0.66563,-0.25753,-0.46161,-0.13002,-0.07899,2.3442,0.38014,-0.69118,-0.79319,-0.61463,-0.4361,1.2984,-0.28306,-0.23204,0.074062,0.048561,-0.078984,0.20158,0.63521,0.45667,-0.002443,-0.30856,-0.28305,-0.13,0.73726,-0.25757,-0.4871,-0.33406,0.43115,-0.15548,-0.38511,0.074051,0.30364,0.50768,-0.33407,-0.12998,0.30363,-0.13002,0.074044,-0.23202,-0.66567,0.38018,0.66075,0.2016,-0.56366,-0.33406,-0.13002,0.12507,0.78827,0.35464,-0.027993
-0.078996,0.023035,-0.002461,0.023059,0.023041,-0.002485,0.099546,0.074057,-0.10447,-0.002467,-0.027969,0.12506,-0.027974,-0.15549,-0.002467,0.15057,0.12505,-0.13,-0.027969,0.023035,0.074062,-0.10448,-0.07899,0.023035,0.12505,-0.002461,0.023035,-0.002467,0.12506,0.023035,-0.12999,0.074057,0.023023,-0.002467,0.074062,0.12505,0.023035,0.099559,0.074038,-0.07899,-0.078972,0.023041,0.099546,-0.13,-0.078972,0.074062,0.099552,-0.10449,0.023035,0.15056,-0.027974,-0.027987,-0.002467,0.074038,0.074062,-0.002448,-0.002461,0.074038,-0.053482,-0.02798,-0.027956,-0.078972,-0.027974,0.074044,0.12505,0.048555,-0.002467,-0.053476,-0.027969,-0.05347,-0.10449,-0.05347,0.048549,0.099564,-0.027974,0.074038,0.048531,-0.027969,-0.002472,-0.12999,-0.027974,0.048536,0.023047,-0.002454,-0.027974,0.023023,0.15056,0.074038,0.023047,-0.10449,-0.10449,-0.053482,0.15056,0.09957,-0.027962,-0.07899,0.048536,-0.002461,0.074051,-0.078972,-0.13,0.023029,0.048549,-0.002448,0.023047,0.099564,0.12505,-0.002467,-0.13,-0.12999,-0.078977,-0.002467,-0.002472,0.099552,0.15056,0.023041,0.048549,-0.078984,-0.05347,-0.002461,-0.181,-0.10449,0.023041,-0.027969,0.12506,0.17607,0.048543,0.023023,-0.07899,-0.002467,0.023041,-0.027962,-0.027962,-0.002472,0.048531,0.17607,0.074051,-0.12998,-0.002472,0.048555,0.023023,-0.027974,-0.027956,-0.002461,-0.053476,0.023054,0.099559,-0.053482,-0.078977,0.074051,-0.002472,-0.10449,0.048543,0.074038,0.048543,-0.10449,-0.027974,0.074038,0.099564,-0.078977,-0.053488,-0.10449,0.074038,0.074062,-0.002467,-0.078977,-0.002461,-0.027969,0.17607,-0.027974,-0.10449,0.048536,0.12505,-0.027969,-0.027962,-0.181,-0.027969,0.12506,0.074062,-0.05347,-0.10449,0.048536,0.17607,-0.002467,-0.078972,-0.10448,-0.002472,-0.002479,-0.002461,-0.05347,-0.05347,0.074057,-0.027974,0.048536,0.099552,0.048531,-0.002467,-0.027969,-0.053464,0.023047,0.023035,0.048536,-0.027993,-0.10449,-0.002461,-0.078972,0.074057,-0.002467,0.048549,0.048549,0.12505,0.048531,-0.053482,-0.053482,-0.002454,0.09957,-0.027974,-0.078996,0.023029,0.023047,-0.053464,-0.10449,-0.078984,0.023023,-0.002461,0.023059,-0.078972,0.048549,-0.027993,-0.002485,0.023035,-0.053464,-0.002472,-0.07899,0.048531,-0.053482,-0.10447,-0.027956,0.048543,-0.053488,-0.002479,0.048549,-0.027969,-0.05347,-0.027969,-0.002479,0.074051,-0.002454,-0.002467,-0.002472,-0.002485,-0.07899,-0.02798,0.099577,-0.078972,-0.078972,0.023035,-0.002485,-0.002467,-0.027956,-0.002472,0.023035,-0.002479,-0.002467,0.074062,0.048561,-0.002461,-0.002472,-0.027974,-0.053488,-0.002467,-0.053476,-0.027962,-0.002467,-0.002467,-0.002472,0.023023,-0.027969,0.074062,-0.078972,-0.05347,-0.078996,-0.002479,-0.027969,-0.053464,-0.078972,0.023059,0.074051,-0.053476,0.023023,-0.002479,-0.002461,-0.027962,-0.078966,0.048549,-0.07899,-0.053476,0.048536,0.048549,-0.002454,-0.05347,-0.02798,0.074038,0.023035,-0.078972,-0.078984,0.023047,0.099546,0.023047,-0.05347,-0.1045,-0.1045,0.12505,-0.027969,0.048561,-0.002448,-0.027974,0.099552,0.074038,-0.027974,-0.10449,-0.07899,-0.12999,-0.12999,-0.10448,-0.002448,0.023047,0.023047,0.074038,-0.07899,0.074038,-0.002467,0.099559,-0.002448,0.099564,0.099552,0.17607,0.048549,0.048536,-0.002461,-0.002467,-0.1555,-0.10449,-0.027969,0.074051,0.074062,0.17607,0.12505,0.048531,-0.002485,-0.078996,-0.002467,-0.05347,0.023054,0.023041,0.023035,-0.053482,0.023029,-0.027969,-0.053476,-0.002448,-0.10448,0.023035,0.023029,0.15056,0.15056,0.048549,-0.12999,0.023041,0.048543,-0.002472,-0.07899,-0.05347,0.048555,0.074044,-0.053488,0.099564,0.074038,-0.002467,-0.078977,0.023047,0.048536,-0.15549,-0.181,-0.002461,0.099546,0.074051,-0.053458,-0.02798,0.048536,0.048536,0.048543,-0.002454,0.023041,0.099546,-0.1045,-0.002461,-0.053458,0.023041,-0.1045,-0.053495,0.048531,0.099564,0.074062,-0.10447,-0.07899,0.023047,-0.027993,-0.002472,-0.10448,-0.027962,0.074057,-0.002467,-0.078977,-0.078984,-0.002485,-0.053482,-0.002467,-0.002454,0.074051,0.074044,0.074038,0.023023,-0.027974,-0.15549,-0.05347,0.023041,0.048549,0.17607,0.25259,0.048525,-0.0535,0.074038,0.074044,-0.027969,-0.078984,-0.002454,-0.027969,0.17607,-0.002467,-0.2065,-0.002467,0.17607,-0.002467,-0.053464,0.023041,0.17607,0.099546,-0.027974,-0.20651,-0.002472,0.15057,-0.002467,-0.10448,-0.02798,0.074044,0.099559,-0.002461,-0.002461,-0.002479,-0.027987,-0.05347,-0.027969,-0.027956,0.048561,0.023047,0.15056,-0.07899,-0.02798,-0.053464,-0.002467,-0.002467,0.22708,0.048536,-0.027962,-0.10449,-0.053488,-0.053464,-0.027962,-0.027969,-0.053482,0.023029,0.023023,-0.002467,0.048567,-0.078972,-0.10449,-0.002479,0.048536,0.048549,-0.12999,-0.07899,0.023035,0.15056,0.1232,0.072198,0.1487,0.22521,0.1742,0.072198,-0.053464,0.048549,0.074044,-0.02798,-0.002479,-0.027987,0.09954,0.074038,-0.002467,-0.002461,0.099564,0.074069,0.048561,-0.053464,0.074057,-0.027974,-0.053488,-0.07899,0.074038,0.023029,-0.002467,0.048543,0.023054,-0.078972,-0.10447,-0.1045,-0.13,0.048536,0.12505,-0.002461,-0.002454,-0.053488,0.074038,-0.078996,0.023041,0.048561,-0.07899,-0.002467,0.023023,0.023041,-0.002467,0.12507,-0.027969,-0.027962,0.048561,0.048555,-0.053476,-0.002485,-0.02798,-0.053458,0.048536,-0.027987,-0.053476,0.074069,-0.027962,-0.027969,-0.002485,-0.027969,0.023054,-0.053464,-0.02798,-0.053476,0.099546,0.12505,0.074057,-0.12999,-0.027974,-0.027993,0.023035,-0.053464,0.099564,0.048531,0.12505,0.023035,-0.10448,-0.027987,-0.027969,-0.002454,-0.002461,-0.02798,-0.078996,-0.053464,-0.027962,0.023059,0.27812,-0.18103,-0.25754,0.9158,0.45665,-0.30854,-0.92072,-0.43608,0.25262,0.074051,-0.2065,0.099546,-0.028018,0.20151,-0.2321,-0.79316,-0.61462,0.86483,2.4462,0.71171,2.0893,-0.20641,-2.094,-1.0738,-1.0228,-0.79328,-0.46175,-0.69124,-0.38508,1.4005,-0.58914,3.6962,-0.74217,0.50765,-0.30851,-0.86963,-1.2268,2.446,1.1199,-1.2522,-1.0228,-1.0482,-0.53818,-0.38511,0.099546,2.5483,-0.078917,0.15057,0.30344,0.074044,-0.002516,-0.64007,-0.46157,-0.35962,0.76275,-0.30846,-1.5585,-0.46163,1.375,0.96689,0.78829,-0.43613,-0.74217,0.023065,0.73728,-0.385,0.25249,0.25257,-1.3798,-2.0941,-0.64021,1.1963,5.2011,1.8596,-1.9155,-1.2778,1.579,0.30364,0.30359,-1.482,-1.6094,-1.4054,-1.1248,-0.10454,0.2271,0.76277,0.7628,0.48218,1.681,0.71173,0.17607,0.048518,-0.30851,0.27815,0.02295,-0.99728,0.30364,-0.99727,3.1095,-0.6401,-0.7932,-1.2014,-0.43612,-0.25752,-1.4054,0.38014,0.20157,4.2318,-0.74221,-1.1248,-1.0738,0.63526,-0.94625,0.50769,-0.13003,-0.5891,-0.30857,0.48216,0.2526,0.099577,0.12506,0.76274,-0.4106,-0.027962,0.22708,0.22712,-0.13001,0.43117,-0.61463,-0.51258,1.2729,-0.38506,-0.81879,-0.53815,-0.48712,-0.86964,-0.33413,0.58415,1.2729,0.66078,-0.38504,0.22704,0.83926,-0.053427,-0.46157,-0.61461,-0.18101,-0.81873,-0.053495,0.048525,0.9413,0.48218,-0.30854,-0.20652,-0.28308,-0.25751,-0.33407,0.20157,0.73726,-0.23204,-0.46157,-0.002454,0.58422,0.074069,-0.79319,-0.002485,0.074075,0.53306,-0.002558,-0.79316,-0.053427,0.12511,1.426,0.023035,-0.79315,-0.97164,-0.30858,-0.81871,0.58419,0.50768,1.9871,0.48211,-1.2779,0.12509,-0.027956,-0.15552,-0.25753,-0.74216,-0.89516,0.35468,0.15056,1.4514,-0.25757,0.73725,-0.58916,-0.97169,0.12506,0.40566,-0.30855,0.27811,0.22703,-0.15549,-0.76763,-0.18106,-0.13001,0.3291,1.426,1.0689,-0.66565,0.023078,-0.48708,-0.86967,-0.28309,-0.053544,0.30357,-0.13005,-0.41054,0.43121,0.53316,-0.027956,0.099521,0.048518,0.30358,-0.35956,-1.0993,0.96688,1.7831,-0.18102,-2.2216,0.27812,0.96681,0.8393,-0.86971,-0.99725,-0.86972,-0.43612,-0.028018,0.2526,0.15059,0.40567,0.074069,0.48222,0.55871,-0.078977,-0.002485,-0.10449,-0.10452,0.048525,-0.35954,-0.61457,-0.053488,-0.18106,0.55869,0.048592,-0.15554,0.58412,-1.0482,0.53319,-0.15542,0.94128,-0.48716,-1.1758,-0.58916,0.12505,0.50774,-0.58916,1.732,0.50769,-0.33405,-0.33405,-0.35955,-0.2575,0.12507,-0.41057,-0.18105,0.2271,-0.053513,0.60963,-0.13003,0.25266,-0.23192,-0.12994,-0.18109,0.27804,0.38013,-0.48712,-0.30854,0.023078,0.60967,-0.07899,0.17609,-0.8187,-0.35959,0.71175,0.50774,0.48218,-0.33405,-0.027969,-0.46151,0.09954,-0.33406,-0.38507,0.099515,0.17601,0.12501,0.074033,0.099637,0.53331,0.45665,-0.46165,-0.74217,-0.25746,0.35472,-0.25758,-0.25761,-0.35961,1.6555,-0.15553,-0.69117,-0.23202,-0.30851,-0.33404,-0.28308,0.074051,-0.71665,0.5332,1.2984,1.0943,-0.76768,-0.69118,0.2271,-0.053488,0.58422,-0.58916,-0.053488,1.0433,-0.43609,-0.79319,-0.48708,0.73725,-0.33412,0.43115,-0.33401,-0.18105,0.53329,-0.33407,0.15048,0.099521,-0.078972,0.023065,0.27808,0.09954,0.1506,-0.12999,-0.28305,-0.2575,-0.48705,1.0688,1.2474,-0.56363,-0.61465,-0.89523,-0.5126,0.15058,0.63524,-0.48713,0.22708,0.45672,-0.35956,-0.33409,0.45663,0.76273,-0.1045,0.76277,0.68627,-0.43614,-0.41058,-0.94622,-0.66564,-0.28305,0.66072,-0.2065,0.2016,0.22711,0.048543,-0.053519,-0.23209,0.68621,0.17607,1.63,-0.58907,-0.61462,-0.41058,-0.20657,-0.20656,-0.23205,-0.33409,1.7831,-0.10448,-0.46157,-0.56364,-0.48707,0.96682,-0.027998,-0.28306,0.48217,-0.053495,-0.23205,0.20158,-0.23202,-0.02798,0.81377,-0.13,0.48216,0.20161,-0.30848,-0.15543,-0.58917,-0.002546,-0.38517,0.12503,0.60971,1.3749,-0.12999,-0.8952,-0.35956,0.048561,1.324,-0.74216,0.074062,-0.053458,0.38016,-0.35964,-0.69114,-0.53815,-0.79321,1.8086,1.4515,-0.58915,-0.66563,-0.41058,-0.33404,-0.48709,0.30355,0.48216,-0.002412,-0.33398,-0.18097,-0.56367,1.732,0.27806,0.099528,-0.74221,-0.94626,-0.35957,0.27813,0.68628,0.30369,-0.51256,-0.48713,-0.30863,0.12502,0.38016,0.94138,-0.20646,-0.079002,-0.15559,-0.43613,-0.4616,-0.64017,0.78831,-0.33391,-0.13,-0.28311,0.25256,0.3546,-0.10449,-0.38502,-0.20651,-0.66567,1.63,1.0944,0.1506,-0.028005,-0.1555,-0.94623,-0.28303,-0.94625,-0.66569,-0.13005,0.35467,0.2016,0.27812,0.58423,0.12505,0.45662,0.58418,-0.56356,-0.053372,-0.41054,0.20153,0.12504,-0.028018,-0.6402,0.25265,-0.2065,-0.12994,-0.15555,0.71171,0.023041,-0.30854,0.15053,-0.35957,0.35467,-0.18105,0.25266,-0.25756,0.53317,-0.20652,-0.25756,0.074013,0.66073,-0.1555,0.32912,0.3291,0.22711,-0.027969,0.023035,-0.15557,-0.43602,0.023072,-0.078972,-0.74216,-0.2576,1.1453,1.2474,0.074087,0.35466,-0.23206,-1.0228,-0.56363,-0.053476,-0.38505,-0.23201,-0.13001,0.58421,0.27808,0.15057,0.78829,-0.53807,-0.078977,0.12506,-0.30858,-0.35961,0.91579,0.8648,0.1506,-0.7422,-0.7167,-0.46157,-0.18097,-0.1045,-0.027993,0.55871,0.15058,-0.38499,0.25254,0.94123,-0.41058,-0.053476,1.579,-0.15549,-0.8442,-0.81871,-0.35956,0.023059,-0.15549,0.15054,-0.10452,0.45666,0.30363,-0.078977,-0.38509,0.30364,0.50769,-0.61466,-0.23207,0.30366,-0.10449,0.53317,-0.43609,-0.38509,-0.33409,-0.33409,-0.28307,0.17609,0.63526,0.48223,-0.23201,0.048543,-0.13001,-0.30856,-0.43612,0.91579,0.074051,0.35465,-0.053446,-0.41058,-0.28305,-0.053495,0.099521,-0.20652,-0.71665,0.2781,1.1964,1.1708,-0.25755,-0.76771,-1.2777,-0.53807,0.89029,0.66067,-0.71668,-0.20655,0.2781,0.81379,-0.23205,-0.25755,-0.1555,0.25258,-0.15545,0.25263,-0.079008,-0.48711,-0.027974,0.12505,0.09954,-0.23203,-0.002461,0.30362,0.15056,-0.078972,-0.38506,0.5587,-0.25756,-0.33405,0.17612,-0.15556,0.58417,-0.078947,-0.76761,-0.51262,0.099528,0.3801,0.27808,-0.10449,-0.23204,0.25263,0.023041,0.38014,0.15059,0.15059,-0.23202,-0.41058,-0.35955,0.22708,0.27812,0.32914,0.12505,-0.13001,-0.30858,-0.23205,0.15057,-0.12998,-0.25752,-0.5891,-0.23207,0.35457,0.48222,-0.74211,0.81379,0.27806,0.2526,-0.20653,-0.38502,-0.079045,-0.15553,0.58419,-0.053488,-0.18099,-0.25752,-0.56364,0.048561,0.099559,1.5535,-0.35959,-0.20653,-0.66564,-0.18104,-0.53814,0.38016,0.048561,-0.078947,0.15057,0.048512,0.074038,0.12507,-0.053451,0.20165,-0.027956,-0.30859,0.25254,-0.28307,-0.15548,-0.84419,0.78827,0.43115,0.099552,0.30362,-0.18101,-0.28305,-0.28303,-0.28304,-0.20653,0.023035,0.89029,0.27809,-0.15554,-0.74214,-0.33405,0.55872,0.25259,0.20155,0.30361,-0.43609,-0.28302,0.38011,0.25263,-0.48704,-0.35955,-0.28302,-0.4106,-0.002521,0.50765,0.58421,-0.28303,-0.18101,0.81379,1.0689,-0.74218,-0.74218,-0.25756,-0.25754,-0.1555,0.074038,0.22707,0.20158,0.20159,-0.002467,-0.10449,-0.20645,-0.20649,0.81375,0.07402,0.099564,0.048543,-0.078996,-0.71663,0.2271,-0.69119,-0.25757,0.099619,-0.43607,-0.15555,0.58419,0.50768,0.55871,0.17609,-0.46161,0.17609,-0.43609,-0.28304,-0.13004,-0.23203,-0.05347,-0.10447,0.58422,1.1964,0.048555,-0.56366,-0.43614,-0.002443,0.76278,-0.51266,-0.18104,-0.35952,-0.35952,0.12502,0.53316,0.099559,-0.13,-0.13,0.35463,-0.12997,-0.18103,-0.13003,-0.20652,0.83931,-0.20652,-0.28304,-0.15552,-0.35955,-0.25757,1.1964,0.12507,-0.10449,-0.23207,-0.13002,0.048536,0.12505,0.023047,-0.12999,0.32915,-0.18099,-0.027987,-0.10451,0.22711,-0.078977,-0.027993,-0.46159,0.38015,0.86478,0.43117,-0.69117,-0.2831,-0.15553,-0.25749,-0.18097,-0.3595,-0.079033,0.32907,0.55866,1.2474,0.66071,-0.56363,-0.84415,-0.51258,-0.33407,0.12506,-0.15552,0.099546,0.40562,-0.181,-0.12998,-0.10449,-0.02798,-0.13001,0.15057,0.30363,0.35466,0.50765,0.074075,-0.64015,-0.58915,-0.41061,0.55869,-0.002485,-0.48707,0.099583,-0.12996,-0.12999,0.60972,-0.079039,0.89028,-0.28305,-0.5891,0.12508,-0.078984,-0.002461,-0.15551,-0.20656,0.86479,-0.25751,0.38015,-0.48711,-0.5891,0.25262,0.09951,0.27809,0.099619,-0.18095,-0.46159,-0.002516,0.023023,-0.51267,-0.13003,0.73726,0.99236,0.15058,-0.10447,-0.53812,-0.15549,-0.4361,-0.4361,-0.41059,0.22708,0.63522,0.68625,0.20156,-0.078972,-0.53807,0.048518,0.048518,-0.078996,0.15059,-0.002467,-0.1045,-0.18106,0.0741,0.30362,0.96682,0.099583,-0.66562,-0.76771,0.43112,0.25257,-0.61467,-0.28302,0.58426,0.48219,-0.20656,-0.3851,-0.35956,-0.02795,0.12508,1.0178,0.35464,-0.51262,-0.4106,-0.25754,-0.18098,-0.053488,-0.28301,0.15054,0.023017,0.76277,0.023029,0.71171,-0.48708,-0.89514,-0.027925,0.50763,-0.41062,-0.58918,0.58422,0.27812,0.20159,-0.43611,-0.41058,0.22712,0.1506,-0.33407,-0.053476,0.023041,0.35466,-0.1045,0.55867,-0.027956,-0.20654,0.12504,0.099577,-0.23203,-0.027998,0.5332,0.20158,0.25258,-0.81869,-1.2778,0.53317,1.4514,1.2474,-0.84417,-1.1248,-0.12999,-0.43613,0.20158,-0.078972,-0.43608,0.35467,-0.3851,1.2219,0.15057,-0.23204,-0.28303,-0.25754,-0.25751,0.66075,0.12507,0.50766,-0.25756,-0.35954,-0.25753,-0.43613,-0.18101,0.73726,0.35459,0.96677,-0.56359,-0.51254,-0.4616,0.12504,0.48215,-0.13002,-0.35957,-0.13002,0.30366,0.5077,0.17605,0.22711,-0.38502,-0.28303,-0.079026,0.074057,0.048525,0.023035,-0.027969,0.048536,-0.027974,-0.027944,0.074075,0.68624,-0.10446,-0.18107,-0.3851,-0.53811,0.20161,0.15054,1.3494,0.12509,-0.61466,-0.58913,-0.10449,0.17611,-0.28309,-0.79321,0.96685,0.89032,-0.20652,-0.23204,-0.35956,-0.20652,0.43115,-0.0535,-0.23204,0.22711,0.074057,0.17605,0.023041,-0.027962,-0.13001,0.048549,-0.28303,-0.76764,-0.002461,0.38016,0.68622,1.1198,-0.51263,-0.6912,-0.79319,-0.43604,-0.15546,0.048512,-0.28305,0.30363,0.45668,0.86481,-0.38509,-0.053513,0.099564,-0.28301,-0.18101,0.12505,0.074057,-0.23205,0.099546,-0.002479,0.76278,-0.43609,-0.56364,0.45669,1.0943,-0.5891,-0.05347,-0.18106,-0.002521,-0.18097,-0.38507,-0.18103,-0.15554,0.048536,0.45666,0.71176,-0.053476,-0.56361,-0.002443,0.023078,0.94134,-0.56363,-0.79322,0.27808,0.12508,-0.20652,-0.002443,-0.053476,0.17607,-0.25758,-0.35959,1.528,0.15054,0.074051,-0.69116,-0.02792,-0.41054,-0.28307,0.12499,0.22707,0.023065,0.099559,0.17604,-0.23203,0.15059,-0.078898,1.0179,-0.053464,-0.30859,-0.20658,-0.48713,-0.28305,-0.13003,0.73725,-0.18101,-0.1045,-0.053464,-0.078977,-0.002467,0.27811,-0.23205,0.023041,0.96681,-0.002479,0.099595,-0.69117,0.45662,0.023029,-0.53808,0.17605,0.3801,-0.15553,-0.35957,-0.23201,-0.12998,-0.027969,0.023035,0.074062,0.2271,0.12507,0.099577,-0.078972,0.22712,-0.20652,-0.35961,0.07402,0.17609,-0.027974,-0.58913,-0.35957,1.477,0.43115,0.71175,-0.30853,-1.0738,-1.0993,-1.1247,-0.10443,0.58416,0.099521,0.76273,0.27806,0.22707,0.099559,0.023059,0.048561,-0.078966,-0.23197,-0.10447,0.023023,0.023017,-0.02798,-0.20652,-0.079002,-0.35958,-0.053458,0.3802,-0.58914,0.074038,0.96679,0.81376,-0.13001,-0.89521,-0.15551,-0.53816,-0.33409,0.20162,0.1506,0.38017,0.22708,0.35462,-0.027969,-0.079002,-0.12999,-0.053495,0.074057,0.15057,0.50766,-0.25753,-0.51258,0.023023,0.12504,0.099503,-0.25754,0.12513,-0.48705,0.048561,0.35461,-0.079051,0.073989,0.78825,-0.13001,0.099595,0.27815,-0.61463,-0.69118,-0.20655,0.55869,-0.58912,-0.002479,1.426,0.32917,-0.33409,-0.41058,-0.027962,0.099552,0.15056,-0.07899,-0.13,-0.13004,-0.18103,0.12511,0.04861,0.1506,0.023017,-0.027993,-0.10454,-0.33409,-0.46161,0.15056,1.2984,0.32914,0.48218,-0.99725,-0.61463,-0.028023,-0.18105,-0.078984,0.023047,0.12509,0.25266,0.023078,0.30364,-0.13005,0.15054,0.40563,-0.12998,-0.25753,-0.30857,0.15057,0.12508,-0.12999,-0.002497,0.074057,0.074093,-0.92067,-0.79319,0.94131,1.732,-0.3086,-0.079026,-0.48714,-0.30855,-0.38508,0.2016,-0.66565,0.53321,-0.30854,-0.23202,0.023035,0.15055,0.43115,0.17608,0.17607,-0.053495,-0.15548,-0.12997,-0.38503,0.32908,0.53317,0.023041,-0.078977,-0.15554,-0.028018,-0.30855,-0.74217,-0.43602,0.023072,1.9871,0.53313,-0.69113,-0.71666,-0.48711,-0.23203,0.12502,0.023072,-0.25753,0.22711,1.0688,0.71174,-0.002472,-0.69115,-0.53814,-0.13001,0.22711,-0.053458,-0.23204,0.074026,-0.23206,-0.12996,-0.12996,0.27811,1.1198,-0.10455,1.426,-1.0482,-1.3288,-0.33413,0.073971,0.53318,-0.15549,1.0179,-0.027987,-0.30856,-0.43607,-0.002461,0.1761,0.17609,-0.18098,0.023035,0.12504,-0.10449,-0.07899,0.83927,-0.30855,0.35466,-0.61466,-0.53815,0.45666,0.25262,0.55866,-0.84424,0.30367,0.048629,-0.23204,-0.35964,-0.66561,-0.48708,0.25262,1.0688,1.4259,-0.28309,-0.43607,-0.51261,-0.43609,-0.027987,0.17609,0.023065,-0.12994,-0.053488,0.15057,0.35463,0.099583,-0.10449,-0.23202,-0.079008,0.15055,-0.028018,-0.2575,-0.35952,0.45669,0.3291,-0.15556,-0.58912,-0.35959,-0.56364,1.63,0.023035,-0.28308,0.58419,0.074062,-0.69115,-0.41055,-0.38505,0.32912,0.30359,0.32912,0.023035,-0.46161,-0.38507,0.2016,0.22711,0.09954,-0.053495,-0.002461,-0.053476,0.15055,0.32914,-0.43603,-0.35948,-0.20654,-0.053544,0.3291,-0.15553,1.1709,0.32913,-0.92071,-0.58916,-0.15553,0.048525,-0.15555,-0.43607,0.074111,0.53326,-0.13002,-0.053488,-0.053482,0.20155,0.25259,-0.35957,0.25263,1.0688,-0.20652,-0.48712,-0.23203,0.12507,-0.13,-0.10451,-0.41058,0.20162,0.048531,0.17605,0.023047,-0.23201,0.17607,0.45666,0.20158,0.73726,-0.12999,-0.30855,-0.61463,-0.38511,-0.33406,-0.078959,0.27818,0.074069,0.48213,0.81372,0.22704,0.048561,-0.74212,-0.25754,-0.13,-0.002497,0.023029,-0.18106,0.2271,-0.002369,-0.15543,0.17607,0.4566,-0.18105,-0.078972,0.20156,-0.41061,0.1251,1.7831,0.35465,-1.2268,-0.2575,-0.30857,-0.38513,-0.38509,0.63523,-0.078996,0.023047,-0.25756,-0.078996,0.38017,0.15055,0.50767,0.048585,-0.48704,-0.18101,0.048512,0.30357,0.22707,-0.053488,-0.12996,0.25261,-0.43613,-0.053531,-0.43609,0.99243,-0.15546,0.58419,-0.4361,-0.64016,-0.3086,-0.07899,-0.002467,0.023029,0.074038,0.20159,0.38014,0.27815,-0.15548,-0.13,-0.33409,0.099546,0.27807,1.2729,-0.58908,-0.81869,-0.48715,0.074057,0.048518,-0.079014,0.12506,0.023047,0.38015,0.17609,0.30363,0.60973,0.048536,-0.30856,-0.92072,-0.28303,0.20156,-0.3596,0.83929,0.48221,-0.25756,-0.28306,-0.23204,-0.13002,-0.027974,0.15059,0.12508,0.074062,-0.053458,0.2526,-0.078959,-0.28301,-0.12998,0.048555,0.099521,0.45659,0.22705,0.048561,-0.053439,-0.56363,0.074044,-0.25753,-0.76769,0.32914,0.048573,0.25257,-0.43609,-0.078935,-0.053488,1.0178,-0.2065,-0.10447,-0.00251,-0.15553,-0.283,-0.053482,0.17604,0.30361,0.35464,-0.28308,-0.12998,-0.28304,0.40566,1.0178,-0.51262,-0.4871,0.20159,-0.43612,-0.81869,-0.027944,1.4004,-0.10451,-0.1045,-0.51263,-0.43612,-0.53813,0.50771,0.48218,0.22709,0.20158,-0.48711,-0.15549,0.27813,0.023035,0.099528,-0.18103,0.099559,0.099552,-0.18101,-0.41049,0.12509,0.20156,-0.028036,-0.18102,-0.13,0.099546,0.43116,0.3291,0.27809,-0.5126,-0.28298,-0.002467,-0.18099,-0.53812,-0.4871,-0.23201,0.94131,0.91577,0.17606,-0.56362,-0.13,-0.46157,-0.079002,0.099552,-0.1045,0.30364,0.048567,0.27814,-0.33406,-0.002497,-0.15553,0.48218,-0.25752,-0.48713,0.12507,1.2474,0.22711,-0.64019,-0.64018,-0.76765,0.38022,1.2474,-0.61465,-0.48714,-0.20659,-0.002491,0.22711,0.099595,-0.078977,0.09954,0.25266,-0.25756,0.023005,0.12506,-0.002467,0.25257,0.09954,-0.28298,-0.002412,0.22704,-0.002479,-0.33405,-0.002491,-0.20653,0.22712,-0.078972,-0.25756,-0.56362,0.17613,1.0433,1.0688,-0.33407,-0.58913,-0.7677,-0.10453,-0.46161,-0.28306,-0.078959,0.71175,0.30361,0.63523,0.074087,-0.46159,0.022992,-0.1555,-0.10447,0.048555,0.45662,-0.13005,0.20159,-0.23203,-0.027962,-0.12999,-0.053476,-0.10452,-0.20652,-0.51261,0.099583,1.2729,1.2219,-0.79323,-0.079002,-0.86971,0.32912,0.048536,-0.002472,-0.46159,0.22711,-0.43607,0.32913,-0.05347,0.66072,0.76275,-0.35956,0.4056,0.22708,-0.33393,-0.89515,-0.20653,0.22703,0.17602,-0.18103,0.099552,0.20161,-0.002479,-0.51261,-0.41058,0.023078,0.074075,2.3442,-0.25756,-0.69118,-0.56366,-0.61467,-0.58911,0.78831,0.32913,0.43113,-0.64018,-0.028036,0.048543,-0.18098,-0.51254,-0.25754,0.86478,0.099546,0.30358,0.048585,0.099546,-0.20655,-0.25753,-0.61462,-0.002443,0.12507,0.43115,-0.4361,-0.002472,-0.25754,0.50769,-0.053488,0.40566,-0.5126,0.1251,-0.33407,0.38013,0.099552,0.07402,0.15056,0.12504,-0.05347,-0.33399,-0.053439,0.48216,0.022998,-0.053476,-0.25751,-0.15552,0.3291,0.17606,0.48214,-0.078941,-0.4871,-0.33409,-0.15554,-0.41054,-0.28303,-0.05347,0.76275,0.45666,-0.053513,0.12508,0.53318,-0.76769,0.55871,1.1454,-0.79321,-0.86972,-0.84419,0.023035,0.60968,0.68624,-0.15549,-0.13002,-0.1045,-0.46154,0.1251,0.35462,0.17603,0.27812,-0.1555,-0.25754,-0.15554,-0.53812,0.023047,0.048543,-0.18098,1.2219,0.71175,-0.48716,-0.028005,-1.0228,-0.43599,-0.002454,0.022998,-0.079039,-0.002467,0.074057,0.15059,-0.18101,0.023023,0.50771,0.1251,0.023023,-0.078984,-0.10452,-0.15555,-0.18097,-0.078941,0.023035,0.4566,0.099595,-0.28305,-0.28302,-0.25756,-0.20656,-0.25757,-0.51258,0.32914,1.681,0.48219,-1.1248,-0.94627,0.81378,0.15065,-0.97171,-0.48711,0.023005,-0.028018,0.12504,-0.078972,1.2984,0.58421,-0.41053,-0.25753,-0.18106,-0.20655,-0.002472,0.099546,-0.053464,-0.053446,-0.283,-0.28305,0.71171,0.9923,-0.3086,-0.30856,-0.078959
-0.078996,-0.053464,0.099564,0.20158,-0.02798,0.023054,0.023023,-0.078996,-0.10449,0.023047,0.023029,-0.053476,-0.002454,0.15057,0.023035,-0.002472,-0.10449,0.099534,-0.027987,-0.2065,-0.1555,0.12505,0.22708,-0.078959,0.12505,0.023029,-0.078977,-0.002467,0.023035,-0.002461,-0.078972,-0.181,0.023047,0.099552,0.048555,-0.078996,-0.1555,0.023029,0.099546,-0.027969,-0.15549,-0.053464,0.074057,0.074044,-0.02798,0.023041,0.074051,-0.053488,-0.10449,-0.053476,-0.053476,-0.002479,0.074044,0.12505,0.048536,-0.078972,-0.002472,-0.1045,-0.10449,0.023041,0.099546,-0.02798,-0.078972,0.023041,0.023029,-0.078972,0.048549,0.023023,0.023035,-0.20651,0.023047,-0.002479,0.048543,0.12508,0.048549,0.023023,-0.027974,0.048555,-0.078996,-0.053476,-0.20647,-0.078966,0.12505,0.12505,0.074062,0.048518,-0.053476,0.023035,-0.027974,-0.078984,-0.10447,-0.05347,0.20158,0.099552,-0.053476,-0.002467,0.048543,0.099546,-0.078984,-0.10448,-0.05347,-0.027974,0.15057,0.099559,0.15058,0.09954,-0.078996,-0.1555,-0.15548,-0.002454,0.048549,-0.002461,-0.053476,-0.053482,0.023054,-0.002479,0.099546,-0.027974,-0.10449,-0.13001,0.023035,0.074051,0.074057,0.15057,0.15057,0.048536,-0.38502,-0.13,-0.12999,0.25256,0.15056,0.023029,0.074069,-0.078972,-0.05347,-0.053476,0.048543,-0.002461,-0.053488,-0.10447,-0.10447,0.048549,0.15057,0.17607,-0.002467,0.074044,-0.002472,-0.2065,0.023029,-0.02798,0.074057,0.09954,-0.002461,-0.12998,-0.002454,-0.002461,0.074044,0.048518,-0.027969,-0.002467,-0.002485,-0.002443,-0.027962,0.023041,-0.002472,0.074038,0.20156,-0.12998,-0.10449,-0.12999,-0.027969,-0.002461,0.074057,0.15057,-0.002461,-0.027974,-0.20651,-0.10449,-0.053482,-0.002467,-0.002467,0.09954,0.22708,0.12507,-0.18099,0.023023,-0.027974,0.023023,0.023041,-0.002479,-0.027969,0.023035,-0.027969,-0.002467,-0.002454,0.099534,0.12506,-0.002467,0.023054,-0.10448,-0.05347,-0.002467,0.048536,0.15056,0.023047,-0.002461,0.074038,0.074038,-0.027962,-0.078977,-0.078984,-0.2575,0.099546,0.17606,0.20158,0.074051,-0.002472,-0.18101,-0.053482,0.12505,0.074051,0.023041,-0.027969,0.074044,0.074057,-0.002472,-0.078984,-0.20652,-0.027974,-0.027969,-0.078959,0.30358,0.17606,-0.002454,-0.027974,-0.078984,-0.027974,-0.078984,-0.002461,0.17606,-0.002467,-0.10447,-0.12999,0.048549,0.12504,0.099546,-0.002467,-0.18099,-0.18101,0.048531,0.048536,0.22707,0.15056,0.12508,0.074051,-0.13001,-0.15548,-0.12999,-0.053482,0.09957,0.12505,-0.13,-0.15549,0.074057,0.17607,-0.027969,-0.053476,-0.053476,-0.181,-0.10449,0.09954,0.12505,0.20158,0.048543,-0.10446,-0.2575,-0.13002,0.023023,0.17606,0.074044,-0.078972,-0.078972,0.023041,0.074057,0.15056,-0.053482,-0.25751,-0.2065,0.074038,0.20156,0.17605,0.023029,-0.027956,0.023041,0.048549,0.048531,-0.1045,-0.15549,-0.002448,-0.053476,-0.027974,0.048543,0.048555,0.12507,0.12506,-0.027969,-0.1555,-0.053482,0.023035,-0.002485,-0.07899,-0.05347,0.074069,0.17608,-0.10449,-0.15551,0.048543,0.099552,0.099534,-0.10449,-0.20648,0.12506,0.17606,-0.002472,-0.027969,0.048561,0.09954,-0.079002,-0.02798,0.048555,-0.078977,-0.02798,-0.002454,0.048567,0.15057,-0.002472,-0.078984,-0.10447,0.074051,0.074033,0.12505,-0.053488,-0.053464,0.12507,0.048536,0.048549,-0.078977,0.048549,-0.027987,-0.1045,-0.10447,0.074057,0.15055,-0.027969,-0.18098,0.099564,0.074057,0.17605,-0.002479,-0.1555,-0.027956,-0.027962,-0.027956,-0.12998,0.023023,0.023041,-0.078984,-0.053482,0.074033,-0.002485,0.023041,-0.02795,0.048543,0.023035,0.023047,-0.027956,-0.002472,-0.13,-0.053482,-0.002467,-0.002461,0.09954,0.074057,-0.078972,0.048555,0.15056,0.20156,-0.10449,-0.12998,-0.078984,0.048543,0.12505,-0.078947,0.17607,-0.002467,-0.20652,0.09954,0.074051,0.023054,-0.15548,-0.002479,0.023041,0.023035,0.20158,0.023041,-0.2065,-0.05347,-0.002461,0.048543,-0.027962,-0.181,-0.027962,0.099552,0.12504,-0.12999,0.023035,0.074033,0.048536,-0.12996,-0.002461,-0.002467,-0.07899,0.074044,0.17607,0.099552,-0.053488,-0.078972,0.074051,-0.002472,-0.053476,-0.027969,0.099559,0.099559,-0.23199,0.023041,0.20156,0.048531,-0.12999,-0.078972,0.023041,0.074038,-0.053495,0.023054,0.074069,-0.027974,-0.002479,-0.053458,-0.25749,0.12503,0.074033,0.023041,0.15057,0.023029,-0.002461,0.048567,0.048536,0.048555,-0.18102,-0.13002,-0.027987,0.12504,0.17609,-0.20652,-0.38508,0.099583,0.81379,0.78828,0.53319,-0.15554,-0.74221,-0.4361,-0.56357,-1.2269,-0.94622,1.0434,0.20164,0.94127,0.023029,-1.5329,0.81379,0.43117,-0.20652,1.3239,-0.94622,-1.5585,1.5279,0.50775,2.2167,-0.38504,-0.079008,-3.6755,-2.0176,1.0943,0.17611,1.0433,-0.53816,0.17609,0.30171,0.1232,0.32721,0.074081,-0.23197,-0.56359,-2.8848,1.7066,4.0278,4.2573,-0.48705,-0.97187,-2.3747,0.5585,-1.4564,-2.0176,-1.4564,0.22715,-0.51257,0.20163,2.3698,0.71179,0.73724,-0.97183,-0.61472,-1.0993,0.32917,0.86481,0.50771,0.20158,-0.053519,-0.23201,0.89033,2.3953,-0.84422,-2.094,-0.46152,-0.053592,-1.2268,-0.99723,0.32899,2.3697,0.81384,-0.41056,-0.69115,-1.0227,1.1198,0.074013,0.099528,0.38011,-0.30849,-0.10452,-0.23205,-0.23205,-1.6094,2.4208,1.477,1.1709,-0.1045,-1.4819,-1.6605,-0.76766,-0.69115,-0.61462,-0.053519,1.5789,0.15057,-0.027993,-0.30854,0.15058,1.477,-0.38508,-0.23202,0.81379,-0.078996,0.074013,-0.46162,-0.35951,0.4311,-0.25761,-0.86972,0.32918,-0.027956,-0.61468,-0.12998,-0.51259,0.38017,1.0433,0.73723,0.48214,0.60969,-0.9462,-0.89522,-0.078996,-0.99728,-0.74226,0.45661,0.73724,-0.002448,1.6557,0.073989,-0.13006,-0.69111,-0.5126,-0.079008,0.048573,-0.002394,-0.53818,0.15052,0.27812,0.6097,0.15056,-0.38504,-0.002461,1.3494,0.048531,0.20159,-1.3288,-0.9461,-0.71667,-1.1759,0.86472,2.1912,1.834,-0.33409,-1.7879,-0.66562,0.099546,0.074033,0.40565,0.023041,-0.15551,-0.053458,-0.20654,0.17611,-0.92068,0.17607,0.43113,0.50761,0.60976,-0.10451,0.32913,-0.20652,-0.86971,-0.053458,0.3291,0.99226,-0.48713,-0.43609,-0.078959,-0.027895,1.3238,-0.10456,-0.97172,-0.4615,-0.25753,1.0179,0.58416,-1.788,-0.41063,2.5993,1.0944,-1.2779,-1.4564,-0.51262,1.1198,1.2984,-0.28302,-0.51265,-0.64013,-0.25753,0.40566,-0.13001,-0.30856,-0.23203,1.0178,0.45664,0.09957,-0.13002,-0.43609,0.73728,-0.66565,-0.66569,-0.64014,1.0689,-0.25751,-0.02792,-0.74215,-0.43613,0.22704,0.66065,0.35463,-0.15548,-0.74217,-0.002443,1.4004,-0.4361,0.38017,-0.12998,-0.46157,-0.28303,0.25259,-0.079002,-0.28305,-0.053513,-0.13001,-0.35961,0.50768,0.60976,-0.86969,-0.3851,0.12507,0.023096,1.2729,-0.38513,0.3291,-1.0738,-0.51259,1.0178,-0.46164,0.25258,0.35466,-0.53806,-0.46159,0.099497,0.17606,0.32913,0.48215,0.22707,-0.25751,0.048561,0.58419,-0.53811,-0.2575,-0.43607,-0.13002,-0.33409,-0.64015,1.681,1.4514,-0.79322,-0.46158,0.71176,-0.61467,-0.35959,-0.84414,0.22712,0.55861,-0.027944,0.07402,-0.078996,-0.053482,0.15058,-0.4106,0.35469,0.58432,0.17606,-0.48707,-0.15557,-0.58915,0.15057,0.074002,-0.28308,-0.027974,0.22713,-0.53814,-0.05347,0.43117,0.30363,0.17614,-0.79316,-0.35966,0.099534,0.71177,-0.002436,-0.12998,-0.027987,-0.53812,-0.35958,0.20154,0.43116,0.099608,0.40572,-0.56367,0.099479,0.023029,-0.25751,0.45666,-0.13005,0.023035,-0.15549,-0.66561,0.66073,-0.20656,0.78824,-0.38494,-0.25751,-0.028047,-1.2269,0.38016,1.0178,1.1964,-0.56362,0.12507,-0.74217,-0.69118,0.27812,0.023029,-0.20652,-0.0535,0.45667,0.12508,0.12504,0.048549,0.17609,0.04861,0.60974,-0.81864,-0.69117,-0.10453,0.58416,0.022992,-0.10451,0.15065,-0.35961,-0.12999,0.12505,-0.94612,1.2729,0.40563,-0.5636,-0.23205,0.71173,-0.23201,-0.4871,-1.0228,-0.053488,1.3239,-0.027998,0.022986,0.53317,-0.48709,-0.99726,0.099588,0.099577,0.55869,0.94132,-0.46163,-0.51263,0.023047,0.53319,0.048567,-0.69113,-0.28306,-0.23201,0.40561,0.023041,0.38012,-0.078996,-0.12995,-0.33405,0.32908,0.074026,-0.12999,0.1761,-0.18102,-0.15552,-0.12998,-0.30852,-0.10447,0.20152,-0.15547,0.12501,0.099564,-0.23201,-0.38499,-0.48703,1.4004,0.25254,0.1505,-0.25753,-0.3086,-0.079051,0.73726,-0.12995,0.048555,-0.51258,-0.53811,-0.30854,-1.5074,1.0689,1.0943,1.1199,-0.41063,-1.0228,0.50768,0.43118,-0.15554,-0.30856,0.023017,-0.48716,-0.33409,0.25269,0.68623,-0.10451,-0.35954,-0.18102,0.27808,0.96684,-0.13001,-0.38509,-0.3086,0.58422,-0.51257,-0.12998,0.20159,-0.33411,0.66074,-0.56364,-0.079039,-0.027969,-0.10449,0.048598,-0.079026,1.1964,-0.20652,-0.1045,-0.053549,-0.35956,-0.002491,-0.12999,-0.15553,-0.23202,0.32914,0.45666,-0.35958,-0.18103,0.45669,-0.5126,-0.76766,1.1199,0.48216,-0.48714,0.58421,-0.56361,-0.92076,-0.13001,0.17612,-0.0535,0.40566,0.25264,0.35467,-0.23205,-0.028011,-0.15552,-0.56354,-0.25759,-0.30858,0.074026,0.074111,0.25258,0.40561,0.20159,0.27815,-0.69119,0.15063,-0.23202,0.074062,-0.13003,0.60968,-0.38511,-0.10451,0.5077,-0.43609,1.0433,0.43117,-0.35954,-1.4564,-0.84424,0.91579,-0.38503,1.1964,0.68626,-0.7932,-0.84422,-0.38505,-0.1556,0.45661,0.40566,0.45664,-0.4106,-0.10443,0.5843,0.73725,-0.18104,-0.18105,-0.35959,-0.20655,-0.43608,-0.58908,-0.053488,0.38011,0.50771,-0.38508,-0.002485,-0.38511,0.81379,0.25262,-0.7932,-0.48713,-0.027993,0.78832,-0.43615,-0.35956,-0.078953,0.30363,-0.30858,0.048592,0.96677,-0.002521,-0.51252,-0.18094,-0.20653,0.073953,0.12502,-0.25752,0.2271,0.3036,-0.002479,0.5842,-0.02792,-0.25755,-0.33405,-0.10449,0.58416,-0.56364,-0.66564,0.5588,0.27808,-0.7422,0.76281,-0.13006,-1.1249,-0.12995,0.35473,0.68622,-0.33413,-0.35961,-0.15557,0.022998,0.12511,0.20158,0.1506,0.023072,1.579,-1.0228,-0.84421,2.0382,-0.25758,-0.15557,-0.48708,-0.61458,-0.30855,-0.13009,-0.002472,-0.027974,0.40565,-0.10456,0.048531,0.6352,0.099546,0.20159,-0.12994,-0.66555,-0.13001,0.12502,-0.079026,0.3036,0.32912,0.074044,-0.30855,-0.232,0.27813,-0.28303,-0.028036,-0.10453,-0.53814,0.66076,0.023084,0.27816,-0.33402,0.38006,0.53314,-0.25755,-0.43607,-0.43602,-0.053506,-0.33408,0.17608,1.1198,0.27808,-0.61458,-0.078953,0.22706,-0.23208,-0.28303,-0.078966,0.15058,-0.6657,1.2729,2.1657,0.023041,-1.0993,-0.81875,-0.3851,-0.181,0.20161,-0.20652,0.048549,0.2271,-0.10451,0.12505,0.17606,-0.053433,0.50766,0.66072,-0.58913,-0.56365,0.99229,0.17607,-0.71662,-0.6146,-0.41056,0.32911,-0.38507,0.22703,0.27808,1.8596,-0.56366,0.09957,-0.15549,-0.69114,-0.58909,-0.053519,-0.30855,-0.12998,0.20156,0.15054,0.074044,0.48216,0.94131,0.12512,-0.20653,-0.23205,-0.028036,-0.28303,-0.56355,-0.84416,0.60968,0.32908,0.09954,-0.25755,-0.58914,0.66076,0.048555,-0.078984,-0.38505,0.20159,0.20158,-0.4106,-0.053476,0.58421,0.099515,-0.46161,-0.53812,0.66077,-0.23208,0.17604,0.074044,0.023078,0.048585,-0.15548,0.30365,0.12504,0.50762,-0.66561,-0.43604,-0.181,0.099559,0.048561,0.074044,0.022974,0.048536,0.60973,-0.027987,-0.41058,0.50767,-0.41057,-0.18098,0.38016,-0.10449,-0.002472,-0.56361,-0.58908,0.48222,-0.25761,0.76268,-0.079014,-0.002461,0.86478,0.3546,-0.10451,-0.64011,-0.81867,0.023084,0.32915,0.55866,-0.48716,1.0178,-0.25752,-0.8697,-0.28306,-0.7166,1.4259,-0.028042,-0.5381,-0.00243,0.32913,-0.2065,0.25258,0.074051,0.048525,0.048543,-0.181,0.32914,0.32913,-0.4871,-0.58913,0.15058,1.0179,-0.33407,-0.2831,-0.3851,-0.18104,0.12509,-0.053495,0.60977,0.43121,0.48214,-0.92081,-0.002485,-0.38505,-0.25753,-0.002485,0.15059,0.074062,0.78826,-0.1555,-0.078972,-0.15555,0.38011,0.1761,-0.002479,-0.25748,0.17607,0.074062,-0.38506,-0.28306,-0.4106,-0.3086,-0.027974,0.27819,0.30369,0.023023,0.40558,-0.079008,-0.61465,-0.027974,0.099552,0.074051,0.17609,0.099559,0.023059,0.048555,0.023054,-0.079002,0.25261,-0.12998,-0.078947,-0.61467,0.66071,0.35464,0.09954,-0.56364,-0.10453,0.074081,0.5077,-0.38513,0.22709,-0.18094,0.76277,0.12501,-0.28307,-0.79309,-0.23207,1.4004,-0.053482,-0.10451,-0.81873,0.40569,0.4057,-0.64013,-0.18101,0.6352,-0.20656,-0.41061,-0.28305,0.1506,-0.002461,0.12505,-0.027962,-0.1555,1.2729,0.099595,-0.81871,0.15057,0.30361,-0.23203,-0.53814,-0.07899,-0.13001,0.53318,-0.30855,0.48216,-0.053415,0.53323,-0.84422,-0.4361,0.25254,-0.69118,0.38014,0.048512,0.099583,0.66075,0.023065,-0.28299,-0.61467,-0.3341,0.48215,1.5025,0.3036,-0.33405,-0.69115,-1.1248,0.22708,0.83925,0.6352,-0.20654,0.099577,-1.0737,-0.38507,-0.053531,0.09954,1.0689,-0.48708,-0.028005,-0.027998,0.53317,-0.35956,0.27813,0.074057,-0.25752,-0.79315,0.12503,0.32907,1.2984,0.4567,-0.41057,-0.64015,-0.69115,-0.10455,0.27809,-0.002412,-0.79307,-0.33409,0.15053,0.32908,0.40564,-0.13001,0.7373,-0.053506,0.22709,-0.23205,-0.35957,-0.56364,-0.38505,0.074051,0.20158,0.09957,-0.15551,-0.25753,0.27816,1.4004,0.0485,0.22709,-0.99724,-0.027969,-0.027962,0.15055,-0.74221,0.1251,-0.002387,0.30361,0.02301,-0.4361,0.15055,-0.13002,0.63525,-0.20653,0.20159,-0.002472,0.023041,-0.15549,0.048536,-0.079014,-0.35957,-0.079008,0.48216,0.45672,0.099619,-0.46157,0.12501,-0.079057,-0.23201,-0.3085,0.20159,0.048518,-0.48708,0.17605,0.17606,-0.25751,0.048549,0.048543,0.12507,0.22712,-0.79321,0.2271,-0.28305,0.71177,0.27808,-0.28302,0.58422,0.5332,-0.10449,-1.0738,-0.30857,-0.76771,-0.02798,0.30361,0.35467,0.12509,-0.002472,0.12504,-0.20653,0.25268,-0.18096,0.1506,-0.33413,0.27807,0.048585,-0.10452,-0.43608,0.78827,-0.30854,-0.23207,-0.38511,0.27811,0.099619,-0.078966,-0.48707,-0.25757,-0.20656,-0.10447,0.20159,-0.053519,0.40566,0.048567,-0.2065,-0.15551,-0.10445,0.40562,0.074013,-0.71662,0.074142,0.3291,0.40557,-0.053513,0.27811,-0.28302,-0.69117,-0.30854,0.45665,0.53322,-0.43608,-0.38505,-0.48708,-0.002454,0.63518,-0.13002,0.45664,0.43116,-0.28307,-0.10451,0.074062,0.30363,-0.30855,-0.25753,-0.079008,0.48219,-0.053519,-0.23201,-0.64005,-0.078966,1.5535,-0.10459,-0.23205,-0.35957,-0.02798,0.15057,0.43121,-0.53814,0.35468,0.17607,-0.51265,-0.56362,-0.38508,0.12509,0.32915,-0.053495,-0.13,0.38016,0.099552,0.20156,-0.002479,0.43117,-0.33398,-0.61468,-0.30859,0.43111,0.73726,0.2527,-0.71663,-0.48713,-0.25757,0.78826,-0.4361,-0.027987,0.3291,0.63522,-0.30853,-0.43607,-0.25752,0.27811,-0.002448,-0.15551,0.22713,0.15059,0.30358,0.12502,-0.13,-0.181,0.2271,-0.61467,-0.25753,-0.35954,0.48221,0.60973,-0.028036,0.71169,0.17611,-1.1247,-0.74212,0.40563,0.074013,-0.079045,0.27812,-0.027969,-0.7166,-0.25759,0.58419,0.63524,0.45667,0.2526,-0.66565,-0.5891,0.5842,-0.20655,-0.4871,-0.30853,0.43115,-0.13,-0.0535,0.099534,-0.10449,-0.13003,-0.13,0.78826,1.8596,-0.61462,-0.56356,-0.56363,-0.2576,0.15054,-0.69111,-0.53817,0.99229,1.0688,0.40569,-0.81866,-0.58916,-0.20653,-0.002443,-0.43608,0.22707,0.32912,0.02309,0.17612,-0.33405,-0.28303,0.50765,0.25257,0.53317,-0.46163,-0.12997,-0.15551,0.40564,-0.25757,-0.64014,-0.46154,-0.10446,0.22708,-0.4106,0.9923,1.1964,-0.053439,-0.35958,-0.69118,-0.23201,-0.23197,0.22708,0.074013,0.3036,0.58421,1.4005,-0.2065,-0.99724,-0.58913,-0.079033,0.023017,0.023023,-0.2575,0.32913,-0.1045,0.074069,0.35462,0.91579,-0.23201,-0.079026,0.48216,-0.46153,-0.43607,-0.35959,-0.25759,0.099564,-0.23204,-0.07899,0.20159,0.40568,0.023047,0.12505,0.099595,-0.078953,0.30361,-0.027944,-0.33407,0.27807,-0.33406,0.023059,-0.25753,-0.10453,-0.1045,0.40566,-0.48711,-0.1045,1.426,0.30358,-0.18101,0.023072,-1.2268,-0.18099,-0.33408,0.074033,0.45662,0.48217,0.20161,-0.41056,0.17607,-0.41056,-0.28305,0.099546,0.25262,0.1506,-0.28301,0.17611,0.023072,0.048494,0.073995,-0.15553,0.6607,0.15059,0.15057,-0.38508,-0.28308,-0.10448,-0.20644,-0.30854,0.25259,-0.66568,0.86478,0.76275,-0.30858,-0.38509,-0.30856,0.048549,0.074069,0.048573,-0.05347,-0.05347,0.35464,0.50766,-0.10446,-0.181,0.023029,-0.18104,-0.30859,0.15059,-0.10447,-0.053495,0.20156,-0.58913,0.023047,-0.5126,1.0178,0.40566,0.45664,-0.41058,-1.0483,-0.58912,0.96679,0.17609,-0.58914,0.048543,0.22711,-0.43604,-0.38503,0.074038,0.20157,0.20158,0.5587,-0.053488,0.17605,-0.35956,0.27812,-0.46157,0.25263,0.68623,0.60973,-0.51263,-0.56366,-0.23205,-0.28308,0.022998,0.27811,-0.18094,-0.28301,-0.25754,0.099528,0.048482,0.099534,0.099577,0.27812,-0.078923,1.0944,-0.13003,-0.18108,-0.23205,0.25261,-0.30854,-0.51261,0.35462,-0.25756,-0.64013,0.73729,-0.3596,0.63523,-0.002461,-0.002467,0.32911,-0.43605,-0.92067,-0.35959,0.17602,0.38011,0.12505,0.023054,0.023072,0.1506,0.32913,0.35462,0.074044,-0.33406,-0.38508,0.63524,0.81378,-0.58916,-0.43609,-0.28304,-0.25754,0.023023,-0.027944,0.074069,-0.15555,-0.15555,-0.28305,0.68622,0.53318,0.55869,0.17611,-0.94622,0.074062,-0.15552,-0.30858,-0.027925,-0.002412,-0.46159,-0.35961,0.099534,0.099534,0.023041,0.78828,0.074062,0.17607,-0.20652,0.30364,-0.053464,-0.33404,-0.15553,-0.33409,-0.10452,0.20156,0.20163,0.71176,-0.33404,-0.46158,0.099564,-0.18105,-0.20653,-0.35954,-0.2065,0.30368,0.53314,0.78822,0.1251,-0.66562,0.099521,-0.20655,-0.02798,-0.15551,0.048536,0.023035,0.43121,0.35468,-0.41058,-0.33412,-0.002467,-0.18101,-0.15549,0.35465,0.91584,0.12503,-0.25754,-0.64014,-0.46159,-0.35956,-0.10452,0.38011,0.66074,0.6352,0.38012,-0.25746,-0.23196,-0.92075,0.02298,-0.15553,-0.079002,0.17607,0.53319,0.15063,0.074062,0.023047,-0.027956,-0.15552,-0.38508,-0.56364,1.3239,-0.002472,-0.41061,-0.41059,-0.078972,0.27812,-0.078984,-0.18098,-0.84422,0.96679,1.0433,0.048561,-0.74212,-0.43609,0.2526,-0.10454,-0.30858,0.099552,0.099595,0.71175,-0.20655,-0.38508,-0.23202,-0.13002,1.0179,-0.05347,-0.25757,-0.38508,-0.30852,0.15059,-0.43607,0.55867,-0.028005,0.074044,-0.002454,0.66074,-0.86973,0.40563,0.12504,0.25257,0.68628,0.35473,-0.84414,-0.81878,-0.23209,-0.23203,-0.181,0.17603,0.22707,0.048549,-0.02795,0.15059,1.7831,-0.027938,-0.46157,-0.51262,-0.20654,-0.053488,-0.078984,-0.58913,-0.35961,0.60972,0.68627,0.7117,-0.4871,-0.35961,-0.20655,-0.56358,-0.25746,0.2526,0.17604,-0.20653,0.048531,0.48217,-0.23201,-0.053464,-0.10447,0.074044,-0.10452,0.53321,-0.41058,-0.4106,-0.002485,0.43115,0.32917,0.25265,-0.38512,0.32914,-0.48713,-0.3596,0.30363,-0.23202,-0.76768,0.023059,0.71175,0.58415,-0.079021,-0.35954,-0.25748,0.09954,0.17607,0.2526,0.023029,0.048555,-0.283,0.27812,0.40564,-0.66565,-0.30857,0.40568,-0.15548,0.09957,0.048531,-1.0228,-0.35959,0.38013,0.60971,0.074062,0.50765,-0.30854,-0.38506,-0.181,0.023054,0.15054,0.2271,0.30358,-0.002472,-0.56354,-0.002448,0.17602,0.60968,-0.18105,-0.23203,0.25267,0.2526,-0.53814,-0.66566,-0.51259,0.76275,0.81376,0.17609,-0.58911,-0.81868,-0.46162,-0.002485,-0.13,-0.2575,0.66074,0.22709,0.53315,0.15059,-0.48711,0.17604,0.58419,-0.283,-0.5636,-0.69115,0.38013,0.22706,0.6607,-0.28302,-0.15552,0.38017,0.73727,-0.48712,-0.76769,-0.43609,0.09954,-0.2065,-0.28308,0.22706,0.60972,0.074075,-0.181,0.50769,-0.28303,-0.41057,0.48215,0.48219,-0.48702,-0.58908,0.073995,0.099491,-0.15557,-0.20654,0.40566,0.53321,-0.053488,-0.33405,-0.3851,0.50771,0.22715,0.5332,-0.64019,-0.20653,0.20159,-0.181,-0.079002,-0.002461,0.63519,-0.028011,-0.15552,-0.30853,0.09957,0.76274,-0.35958,-0.13005,-0.002485,-0.30851,0.023047,0.048549,-0.61458,-0.002399,0.78824,0.66068,-0.15555,-0.002454,0.22707,-0.35957,-0.71666,0.45666,0.32915,-0.53809,-0.64017,-0.053464,0.048561,-0.25753,0.25262,0.91576,0.30361,-0.078977,-0.43609,0.50765,0.15055,0.048536,-0.181,-0.027998,-0.33404,-0.334,-0.35954,0.35461,0.023017,0.55862,0.6862,-0.46154,-0.64008,-0.30856,0.074026,-0.053476,-0.027969,0.35464,-0.35957,-0.13,0.45668,-0.69116,0.27812,0.48218,-0.53815,-0.4106,0.099552,0.83928,0.43116,-0.43608,-0.41057,-0.1045,-0.3851,-0.48708,-0.15548,1.0178,0.3036,-0.46155,-0.33409,-0.028018,-0.053495,0.43114,0.15059,0.40567,-0.10447,-0.46156,-0.053482,-0.079026,-0.078996,0.048555,-0.10449,0.023047,0.074069,0.15057,0.32915,-0.10449,-0.18103,-0.027987,-0.13002,-0.15551,0.73721,0.43113,0.099601,-0.35952,-0.81868,-0.56367,-0.20658,0.15054,-0.33406,0.66078,0.45672,0.53318,-0.99726,-0.4106,-0.3341,-0.181,-0.027962,0.15059,-0.027956,0.73723,0.099559,-0.15549,-0.18098,-0.053458,0.27808,0.25258,-0.25756,-0.15551,0.1251,-0.283,-0.027925,0.15055,-0.46162,-0.15553,-0.30855,1.1964,-0.053495,-0.15548,-0.84423,-0.079002,1.2474,-0.30855,-0.74215,-0.38506,0.3546,0.27809,0.074051,-0.053433,0.023035,0.20157,0.074087,-0.18101,-0.2065,-0.053488,-0.20652,0.27808,0.48214,-0.13004,-0.51256,0.25269,0.5587,-0.35963,-0.10454,-0.43612,-0.18101,0.074069,0.91582,-0.41058,-0.20655,-0.053464,0.17612,-0.20655,0.38012,0.58423,0.32912,-0.92074,-0.51266,-0.15553,0.099588,-0.10445,0.02301,0.58421,-0.13001,-0.027974,0.17607,0.30364,-0.027901,-0.41055,-0.41064,-0.002521,0.91582,-0.027987,0.50769,-0.41059,-0.2065,-0.64018,-0.51261,-0.10445,0.71173,0.074057,-0.10447,0.35464,-0.38511,0.20159,0.048536,-0.002479,-0.053464,-0.078972,0.074057,0.55869,0.074026,0.22708,0.04858,-0.8187,0.27806,0.38013,-0.23197,-0.69106,0.60979,-0.23212,0.022968,0.099521,0.27811,-0.51264,-0.30854,0.15056,0.17611,0.12512,-0.07899,-0.002479,0.048549,0.17608,0.1761,-0.079008,0.40563,0.32915,-0.38503,-0.38511,-0.30855,-0.13002,-0.23197,-0.2065,-0.079014,-0.33408,0.83924,0.22708,-0.28306,0.30363,0.71174,-0.56364,-0.71667,-0.51257,0.25262,0.2271,-0.10452,0.35463,0.099564,0.023029,0.023047,-0.002467,0.17607,0.35463,-0.15552,-0.99724,-0.078972,0.5077,-0.23203,-0.15551,-0.002503,0.63518,0.35461,-0.053464,-0.35955,-0.48712,0.048543,0.023023,0.63525,0.12513,-0.41058,-0.053544,-0.25752,-0.15552,0.099521,0.099546,0.40569,0.12505,-0.4361,-0.35959,0.023108,1.1199,0.17606,-0.79322,-0.61463,0.099588,0.15057,0.40563,-0.3851,-0.69116,0.38017,0.50768,0.50766,0.048536,-0.23202,-0.33406,0.099595,-0.74214,-0.053458,1.3749,0.3291,-0.43611,-0.7167,0.099546,-0.25752,-0.10447,0.73726,0.32912,0.074057,-0.28302,0.2526,-0.28305,-0.33406,-0.20654,-0.20652,-0.027987,-0.078959,-0.38505,0.43117,0.58421,0.15054,0.17607,0.43121,-0.20655,-0.61465,-0.61465,-0.078984,-0.23201,0.099577,0.048555,-0.10453,0.17607,0.15056,0.8903,-0.078984,-0.10449,-0.078972,-0.48708,-0.56361,-0.078966,0.15057,0.43113,0.15057,0.099608,-0.38508,0.53317,-0.56365,-0.15551,1.0178,0.3546,-0.66562,-0.33401,-0.89521,0.66072,-0.053495,-0.079026,-0.10453,0.27816,-0.078966,0.48216,0.12504,-0.28305,0.30362,0.35466,-0.3851,-0.35956,-0.1555,-0.30854,-0.053495,0.32913,0.32916,-0.28308,-0.028005,0.048561,0.12509,-0.23203,0.12504,0.20159,0.22713,-0.56364,-0.51259,0.3036,0.099503,0.45667,0.20161,-0.48708,0.15063,-0.15552
-0.053482,-0.2065,-0.002472,0.074051,-0.078984,0.048543,-0.10449,0.023035,-0.027962,0.048555,-0.002461,-0.027969,-0.002467,0.048536,-0.002485,0.023035,-0.053476,-0.10448,-0.02795,0.048549,-0.053476,0.048531,-0.002479,0.074038,0.048543,-0.15546,-0.10446,0.048536,0.023029,0.023029,-0.002472,0.023017,0.15057,0.023054,-0.027969,-0.12999,-0.002479,0.12507,0.023035,-0.12999,-0.12998,0.17605,-0.002461,-0.15549,-0.027956,0.17607,0.074026,-0.027974,-0.027956,-0.078966,-0.18102,-0.15551,0.099552,0.17607,0.074069,-0.12999,-0.053476,0.048543,-0.002467,-0.078977,-0.07899,0.17607,0.023041,-0.002467,-0.18099,0.20156,0.099552,0.023041,-0.15549,-0.07899,0.048536,0.074044,-0.23201,-0.002448,0.023035,0.074057,-0.078984,0.074044,0.074038,0.099552,-0.12999,-0.283,-0.027969,0.22706,0.12507,-0.053451,-0.05347,0.023017,0.023017,-0.05347,-0.078972,0.048555,-0.053476,0.023023,0.15056,0.048561,-0.053464,-0.10449,0.048531,0.099546,-0.027974,-0.10448,-0.078972,-0.10449,0.12504,0.048536,0.048543,0.023029,-0.078972,-0.02795,-0.078984,0.048536,0.023017,-0.15549,-0.07899,-0.027962,0.15056,0.17606,-0.027993,-0.0535,-0.10449,0.12507,-0.12998,-0.12997,-0.078984,0.15055,0.099546,0.17606,-0.053464,-0.25751,-0.18098,0.22706,-0.002467,-0.18099,0.074038,0.15055,0.074051,-0.002448,-0.10447,-0.053495,-0.053482,-0.12999,-0.05347,-0.053451,0.074062,0.048543,-0.053482,0.048525,0.074038,0.023023,0.023041,0.074062,-0.053476,-0.10449,0.17607,0.09957,-0.053488,-0.078972,0.099552,-0.002461,-0.053488,-0.07899,-0.078966,0.048555,0.099577,0.023047,0.074038,0.023029,-0.078996,-0.078996,-0.002485,-0.23202,-0.10447,-0.18097,0.15056,0.15054,0.02301,0.099534,-0.002479,-0.002436,-0.18098,-0.053464,0.20153,0.048536,0.048567,-0.053464,-0.05347,0.048555,0.09954,-0.07899,-0.1555,0.074062,-0.053482,-0.12999,0.048549,0.048536,-0.02798,-0.078972,0.048536,-0.053488,-0.13,0.023047,-0.053482,-0.053488,-0.00243,0.074044,0.15056,0.074057,0.048531,-0.027969,-0.10446,-0.027974,-0.1045,-0.027944,0.074044,-0.053476,-0.053451,-0.078977,-0.078996,-0.078972,0.15056,-0.027987,0.023047,-0.002454,0.20156,-0.027962,-0.027974,-0.078984,-0.18098,0.048549,0.099546,-0.027987,0.023023,0.074044,0.023059,-0.181,-0.002472,0.074057,0.074038,-0.13,0.023054,0.048531,-0.10449,0.023035,-0.078959,0.15055,0.099534,-0.15549,-0.053476,0.099559,-0.002472,-0.027969,-0.002472,0.074057,0.12505,-0.053482,-0.053464,0.099564,-0.053488,-0.25754,-0.027956,0.17607,0.048543,-0.05347,-0.05347,0.099564,-0.10448,-0.002485,0.048543,-0.053488,0.048525,0.099552,0.074062,-0.053476,-0.12998,-0.002461,-0.1045,-0.12998,-0.002461,0.048525,0.023047,0.099552,-0.027987,0.048536,-0.002448,0.048536,-0.07899,-0.05347,0.074038,-0.12998,-0.027956,-0.053488,0.023029,0.048536,0.074057,-0.027969,-0.002454,-0.07899,0.074038,0.048543,-0.078972,-0.12999,-0.053476,0.12506,-0.027974,-0.1555,0.12505,0.099546,-0.12998,-0.15548,0.074033,0.07402,0.048525,-0.02798,-0.02795,0.023059,-0.002448,0.023041,-0.027993,-0.10449,-0.053464,-0.002448,-0.002472,-0.053476,0.048543,0.15057,-0.002479,0.074051,-0.2065,-0.18098,-0.027987,0.074026,0.099546,-0.027969,0.074044,0.048536,-0.027969,0.15056,-0.002454,0.048531,-0.027974,-0.10449,-0.12999,-0.002454,-0.05347,0.048555,0.074051,0.15054,-0.027993,-0.10447,-0.002448,0.074038,-0.07899,0.17605,-0.078966,0.023059,-0.18098,-0.079002,0.099546,0.20157,0.17606,-0.13,-0.002454,0.17607,-0.053488,-0.15551,-0.12998,0.12507,-0.07899,0.099552,-0.078972,0.074062,-0.002467,-0.053482,-0.002472,0.074044,-0.002454,-0.027956,-0.078984,-0.10449,0.023023,0.22708,-0.002472,-0.15549,0.023047,0.17607,-0.027969,-0.02798,-0.027962,-0.078977,-0.15549,0.023023,0.023047,0.023035,0.074038,-0.078972,-0.002467,0.15056,-0.027969,-0.1555,0.048536,0.023035,0.048555,-0.12998,-0.078984,0.074051,0.048549,-0.15546,0.02301,-0.053476,-0.002461,0.12503,0.023029,-0.12999,0.023035,0.15056,0.048549,-0.078966,-0.2065,-0.053495,0.074038,-0.002467,-0.15549,-0.002436,0.17607,0.12506,0.048525,-0.027974,0.048549,-0.002454,-0.027962,-0.002479,0.023023,0.023029,-0.002472,-0.002454,-0.053464,-0.2575,0.17605,-0.002472,0.099552,0.074051,-0.10447,0.023041,0.048525,0.048543,0.048549,-0.027956,-0.078972,-0.027987,0.048536,0.099559,0.023059,-0.078984,-0.027993,0.074044,0.09957,-0.053476,0.048525,0.074038,0.074051,-0.23199,-0.053495,0.074051,0.27809,0.22708,0.048555,-0.15551,-0.027969,-0.10448,-0.181,0.023035,0.22707,0.048543,-0.23201,0.17608,0.17606,0.023041,-0.25751,-0.12998,0.22706,0.099534,-0.002467,0.074062,-0.078984,-0.15549,0.023041,0.12505,-0.027969,-0.28303,-0.053476,0.15056,0.048531,0.048549,0.072198,0.1232,0.1232,0.0977,0.22521,0.072198,-0.027956,-0.10449,0.17604,0.12505,0.023029,0.048536,-0.027969,-0.027962,-0.15551,-0.002461,0.074062,0.048543,-0.027993,0.074044,0.048561,-0.2065,-0.15548,0.074038,0.20157,-0.027974,-0.02798,0.074038,0.048555,-0.027969,-0.002485,-0.078972,0.048561,-0.079008,-0.027962,0.15056,-0.002461,-0.23197,0.074044,-0.028005,0.023029,0.023047,0.023035,-0.027969,-0.002454,-0.002479,0.15057,0.074057,-0.25754,-0.15549,-0.027969,0.45666,0.91583,-0.74218,-0.33408,-0.41055,0.12505,0.099515,-0.053464,-0.10445,0.12504,-0.053513,-0.4616,-0.89526,0.45667,2.2167,1.8596,1.3495,-1.2268,-2.2472,-1.6094,-0.41063,-0.15557,-0.74214,-2.2982,2.9054,0.81378,2.8544,2.1402,-0.84419,-0.4871,-1.7115,-2.3492,-0.97176,0.32909,2.8034,-1.8135,-1.3288,1.9361,2.1656,0.022974,-0.23205,-1.0227,-0.53811,-2.9104,0.15057,1.0944,5.3031,0.43118,-0.41061,-1.8135,-1.7114,-1.2013,-0.53818,-0.28308,0.12507,0.25268,-0.66561,1.3494,1.8851,0.074038,-0.027993,-0.41058,-0.79322,3.9767,0.48216,-3.0378,-3.6245,-2.3746,4.1298,2.5738,-0.94629,-1.4308,-0.71674,0.48216,-0.69116,-1.3289,0.1251,0.63522,-0.028011,0.20156,0.35467,0.81384,1.2473,-0.10453,0.20164,-0.33401,0.76277,0.35467,-0.81871,-1.3544,-1.2268,1.3239,1.681,0.22714,-0.92069,-0.48714,-1.3799,-0.053482,0.96685,0.6862,-0.97179,-0.51259,2.4718,1.8341,-0.20652,-1.9411,-1.1248,-0.33408,-0.25754,-0.69115,0.27812,2.8289,0.074062,-0.10452,-0.078977,-0.38508,0.25257,0.27817,-0.13007,0.1506,-0.30855,-0.15555,-0.28306,-0.7932,0.38018,0.023059,1.426,0.099515,-1.0993,0.023023,0.12503,-0.89521,0.074069,1.4005,-0.69116,-0.84422,0.5077,0.89033,0.45662,-1.0228,0.15057,0.17606,-0.48711,-0.46159,-0.053451,-0.12998,0.30358,0.15054,-0.2065,1.2474,0.86475,-1.0483,-1.2268,-0.10449,0.38012,-0.25759,0.15056,0.43112,0.17608,-0.053464,-0.48708,-1.4819,1.0689,2.7778,0.074081,-0.86975,-0.89524,-0.81866,0.048536,0.43115,-0.18103,-0.10453,0.15055,0.2016,-0.078972,0.023121,-0.30853,-0.33405,1.0688,-0.30852,-0.38511,0.66073,0.023023,-0.078996,-0.53812,-0.71666,0.12505,-0.53814,0.58417,1.1709,1.2985,0.074118,-1.7114,-0.81876,-0.053531,0.6352,0.023005,-0.69115,-0.15549,0.86478,-0.5126,0.22712,-0.28306,0.099559,0.99233,-0.078972,-0.53809,-0.028023,0.15057,-0.10447,-0.053495,0.023047,0.17605,-0.02798,0.099559,0.074038,-0.1045,-0.23199,-0.12993,-0.1045,-0.38509,0.20157,-0.15557,0.099546,-0.20647,0.074062,0.66065,0.40567,-0.027931,-0.48711,-0.6912,-0.69116,0.074106,0.20165,3.5941,-0.86979,0.074051,-1.1758,-0.81871,-0.38506,-0.51261,-0.38508,0.20159,0.58424,1.2219,-0.51267,0.50764,0.09954,0.43114,-0.76764,-0.30855,-0.30856,0.074167,0.15061,0.22702,0.73721,-0.23208,-0.1045,-0.64011,-0.30858,-0.078972,0.023059,-0.027969,-0.078959,0.50771,0.20157,0.074051,-0.10452,0.023017,-0.43609,-0.25751,0.30364,0.53318,0.38014,-0.33407,-0.35958,-0.28304,-0.33406,-0.66566,-0.53812,1.8086,0.68628,0.35468,-0.51261,-0.58922,0.73721,-0.38506,-0.69115,-0.28305,-0.25752,0.40564,0.22713,-0.053488,-0.76772,1.8341,0.43115,0.63522,-0.46159,-0.76771,-0.58914,-0.25754,-0.027987,-0.05347,-0.002461,0.48219,-0.15551,-0.053519,0.81378,0.73726,0.074013,-0.48711,-0.89519,-0.58909,0.022961,-0.46156,-0.43601,-0.53812,0.86482,0.38009,0.15049,0.20158,0.30368,-0.002467,-0.23202,0.048549,0.15056,-0.2065,-0.33407,-0.027956,0.099564,-0.38511,-0.13001,-0.51262,-0.002448,0.27813,1.1454,0.43113,-0.4616,0.27816,-0.66567,1.0178,-0.15556,-0.51266,-0.74212,-0.74215,-0.053476,0.76276,0.68618,0.78826,-0.35957,-0.33405,-0.23204,-0.23203,-0.053495,0.023047,0.43118,0.40566,-0.15554,-0.053433,-0.10452,-0.002461,-0.33408,-0.38508,0.38014,0.45667,-0.10451,0.58421,0.12512,-0.027987,-0.71668,-0.18103,0.074013,0.20156,0.099546,-0.10446,-0.078923,-0.027938,0.27809,-0.053573,0.55873,-0.05347,0.25262,-0.33406,0.35458,0.71175,-0.74218,-1.1248,-0.23203,0.71175,0.50771,-0.027993,-0.002472,-0.48711,-0.25754,0.074087,0.32913,-0.35958,-0.053488,0.38014,0.43116,0.20157,0.023023,-0.43603,0.12512,0.1251,-0.053537,0.17606,-0.38508,-0.23205,-0.18103,0.40568,-0.13003,-0.181,-0.15551,-0.25755,-0.181,0.2016,1.7065,-0.30855,-0.027938,-0.053506,-0.15553,-0.25753,0.2781,-0.3086,0.45664,-0.51261,-0.078977,0.12509,-0.43607,-0.15545,-0.18103,0.43111,0.43112,0.17609,0.15056,0.17604,-0.002436,0.1251,-0.64014,0.48216,0.023047,-0.053495,-0.46159,-0.18103,-0.18103,0.30361,-0.053482,0.86477,-0.053476,-0.15551,-0.5126,-0.35959,-0.3596,0.53323,-0.46151,1.0434,0.4311,-0.18109,-0.053525,-0.35961,-0.58913,0.40569,-0.56361,0.17608,0.12507,0.27818,-0.181,0.53317,0.30362,-0.18102,-0.46162,0.78827,-0.002479,-0.4871,-0.30856,-0.30856,0.73726,-0.35956,-0.4106,0.30362,-0.053519,0.68617,-0.18104,-0.20643,-0.30843,0.50772,-0.15556,-0.053525,-0.002528,0.17612,-0.20658,0.048482,0.023127,0.55872,-0.20652,-0.10448,-0.027962,-0.10455,-0.5636,-0.12999,0.71179,-0.18103,0.30358,-0.28303,0.40566,-0.002491,0.45664,-0.33409,0.63519,-0.4106,-0.76767,-0.15553,0.32912,0.074069,0.30371,-0.46158,0.9413,0.30363,-0.69117,-0.028011,0.2526,-0.05347,-0.28304,-0.28302,-0.027993,0.074026,0.15056,0.074051,-0.027969,-0.053495,-0.28302,1.2219,0.96681,-0.35951,-0.89519,-0.51265,-0.28306,0.12497,0.81376,-0.15552,-0.13002,-0.20653,-0.02795,-0.002448,-0.30855,0.9923,-0.078996,-0.61455,-0.053476,-0.74216,0.30363,1.0433,0.55873,-0.9463,-0.33409,-0.028018,0.17603,-0.84419,-0.1554,0.5588,-0.23207,0.89022,-0.1556,-0.53815,0.68627,0.048555,-0.25755,-0.23203,-0.078941,-0.23196,0.074051,0.27809,-0.66568,0.5842,0.099588,-0.078996,0.15057,0.09954,-0.33405,-0.25751,-0.078984,0.20157,0.27811,-0.027944,0.58422,-0.5891,-0.48708,-0.13001,-0.079045,-0.078996,0.20163,0.27812,0.17607,0.17609,0.099559,-0.1555,-0.23202,-0.23206,-0.25754,0.099564,-0.053433,-0.027962,0.074013,0.32915,0.5077,-0.35956,-0.028042,-0.053476,0.25265,0.40569,-0.13004,-0.53817,-0.53814,0.35463,0.12505,0.12511,-0.002436,-0.41063,-0.35957,0.53321,0.55873,-0.23199,-0.3851,-0.028029,0.099528,-0.232,-0.20648,0.048561,0.02301,-0.002485,-0.002516,0.35463,0.68626,-0.20648,0.30363,-0.13002,-0.38508,-0.43607,-0.15554,-0.30855,0.022998,-0.002454,-0.20648,0.023121,0.5587,0.40558,0.12504,-0.053488,-0.13001,-0.35957,-0.12998,-0.6657,1.2219,0.22719,-0.35951,-0.46162,-0.20658,0.40561,-0.002503,-0.58919,-0.23201,0.20161,1.375,0.25265,-0.74213,0.27806,-0.46164,-0.10455,-0.079008,-0.13003,-0.23201,0.58421,-0.002448,0.22711,0.048543,-0.43609,-0.053476,0.89029,0.35464,-0.3596,-0.23205,-0.30856,-0.41058,0.048555,0.63522,-0.079002,-0.18102,0.023041,0.4056,-0.1045,-0.48707,0.43117,0.99237,-0.10453,-0.46165,-0.69122,0.048567,-0.71657,-0.6911,1.9616,0.38009,-0.41063,-0.43608,-0.46161,-0.002485,-0.002436,0.12507,0.53319,-0.23197,-0.078996,0.023023,-0.002461,0.099559,-0.002461,-0.002461,-0.181,-0.079021,-0.10451,0.12505,0.074044,-0.002418,-0.46161,0.074057,0.50769,-0.35959,0.22707,-0.078996,-0.94622,0.27811,0.22715,0.53321,0.20158,-0.35962,-0.46165,-0.51258,1.3495,0.58421,-0.53811,-0.33407,-0.10451,-0.002479,-0.71668,-0.20651,-0.027938,0.30358,0.5587,-0.002461,-0.12998,0.32913,0.43111,0.20161,-0.58913,-0.71663,-0.079033,0.22706,0.048543,0.074087,0.048531,-0.0535,0.25265,-0.12998,-0.38507,-0.18106,0.099528,0.17609,0.12509,0.71174,-0.13003,-0.25753,-0.30852,0.048555,-0.002467,0.55869,-0.30854,-0.13001,-0.23196,-0.15553,0.099534,0.32907,0.27806,0.15057,-1.2523,0.20164,1.426,0.048536,-0.13001,0.073989,-0.28305,-0.76761,-0.69107,0.17605,0.048512,0.048487,0.25258,0.35463,1.2984,-0.35954,0.15059,0.048561,-0.28302,-0.13001,-0.97174,0.15056,-0.23204,0.55871,0.17604,0.55869,-0.51259,-0.66562,0.63523,0.63522,-0.25757,-0.027993,-0.30853,-0.027956,0.38014,-0.078984,-0.027998,-0.25756,-0.02795,0.099583,0.22715,-0.078984,-0.38508,-0.079021,0.048543,0.2781,0.12507,-0.1045,0.048536,0.17609,-0.30855,-0.30849,-0.027969,0.25258,0.12508,-0.64015,-0.002454,0.81379,0.53318,0.22709,-0.66568,-0.15549,-0.25751,-1.1248,0.71171,0.50765,0.20155,-0.18103,0.04858,-0.28304,0.27811,-0.38506,0.023029,-0.053464,-0.027962,0.43113,0.9413,-0.30855,-0.28307,-0.1045,-0.48705,0.099521,0.22708,-0.10445,-0.12995,0.32907,-0.053513,0.023047,0.45667,0.27807,-0.35953,-0.69105,-0.35954,0.048494,0.3546,0.3291,-0.053537,-0.18101,-0.283,0.38015,0.76273,0.32913,-0.35953,-0.53815,-0.74218,-0.28303,1.8086,0.38014,-0.56361,-0.69113,-0.38513,-0.13004,0.12509,0.96683,0.22708,-0.30855,-0.0535,-0.25754,-0.053495,0.30363,-0.15545,-0.18097,0.048525,0.20154,0.17602,0.023023,0.22712,0.048518,-0.07899,-0.078953,-0.51256,-0.20652,-0.23205,1.426,-0.53814,-0.028018,0.60971,0.53323,0.099546,-0.48714,-0.89521,-0.4361,-0.23201,-0.078984,0.40561,0.40561,-0.12999,-0.20644,0.22711,0.22707,0.22706,-0.18103,-0.25754,0.55869,0.17608,-0.002436,-0.51258,-0.10451,-0.7677,0.09957,-0.23202,0.86478,0.074033,0.83929,-0.33405,-0.9207,1.0434,-0.58915,-0.48713,-0.61466,0.25262,0.45663,-0.30852,0.048518,0.0485,0.20159,-0.002387,-0.10446,0.76267,0.27808,-0.41052,0.12512,-0.15549,0.074026,0.099521,-0.002497,-0.18104,-0.10452,-0.18099,-0.10449,-0.027969,-0.18099,-0.13002,-0.20652,0.074044,1.1454,0.86478,-0.078972,0.023041,-0.35959,-0.51264,-0.79321,0.81378,-0.97174,-0.53811,0.50771,-0.02784,-0.053458,0.73717,0.4311,0.02301,0.15055,0.27808,-0.053488,-0.10449,-0.28302,0.43118,-0.078996,-0.46157,-0.027944,-0.15553,-0.33409,-0.18105,0.76282,-0.027938,-0.181,-0.53816,-0.10456,0.099534,0.023072,-0.84414,-0.078959,0.53315,0.86475,0.96678,-0.00243,-0.46156,-0.43604,0.25259,-0.30861,-0.53809,-0.10447,0.20158,0.09954,0.023041,-0.028011,0.43116,-0.18103,-0.027962,-0.078947,0.048561,-0.30856,0.25257,0.2271,0.12506,0.32917,-0.25753,0.15056,-0.079021,-0.41059,-0.10453,-0.20655,-0.35953,-0.20644,-0.18097,0.32906,0.78823,-0.002448,-0.053446,-0.079014,0.35465,-0.053488,-0.56361,-0.51256,0.38009,0.55869,0.20158,-0.53811,-0.35956,0.35461,0.099552,0.25265,-0.30854,-0.46159,-0.028005,-0.1555,0.45666,0.53318,0.12508,-0.15553,-0.35951,0.71172,0.048512,-0.10452,0.30356,0.099546,-0.38498,-0.30846,0.099588,0.15049,0.15052,-0.027969,0.099546,-0.23203,-0.15551,0.04858,0.63523,-0.53811,0.023035,0.15058,0.048598,-0.43612,0.32913,-0.28305,-0.23205,-0.35958,0.78827,0.27814,-0.002485,0.25259,-0.25752,-0.20655,-0.10452,-0.18098,-0.38504,0.96679,0.2781,-0.28305,0.15056,-0.002454,-0.38507,0.048549,-0.027956,-0.41059,-0.23203,-0.10449,0.09957,0.45672,-0.053446,-0.30851,-0.28308,0.3035,0.073977,-0.58908,0.15064,0.71173,0.15055,-0.41061,-0.28305,0.074069,0.17607,0.50769,0.023072,-0.30855,-0.61465,-0.86969,-0.078984,-0.002485,0.40563,0.86482,0.30366,-0.053513,-0.20656,0.07402,-0.027962,-0.079002,0.048543,0.50771,-0.079014,0.073989,-0.64008,-0.46151,0.12504,0.3801,-0.12995,0.32915,-0.10453,0.22705,0.15054,-0.12999,-0.43609,-0.23202,-0.10449,-0.18099,0.30364,0.048549,-0.181,-0.027987,-0.15551,0.048549,0.2781,0.8393,-0.053488,-0.15552,0.023041,-0.13002,-0.053519,0.048561,-0.53809,-0.3595,0.27814,1.0688,-0.00254,-0.51265,-0.3851,-0.23202,0.074057,-0.02795,-0.25753,0.3036,0.074062,0.2526,0.32913,-0.41058,0.15057,-0.05347,0.048531,0.2271,0.15062,0.023059,-0.02798,-0.56363,-0.53815,-0.35961,1.0178,0.53318,-0.28308,-0.20648,-0.18098,-0.053451,-0.25751,0.074038,0.17606,0.25257,0.20159,0.023041,0.63523,-0.20647,-0.002454,-0.43609,-0.5126,0.15057,0.023035,0.35464,-0.23202,-0.25754,-0.15553,0.20159,0.86484,0.99232,0.40566,-0.3341,-1.2779,-0.43607,-0.43612,-0.10449,-0.053458,-0.20648,-0.23197,-0.18097,0.55863,0.7117,0.83926,0.048543,-0.13,0.40565,0.2271,-0.69116,-0.56361,-0.25753,-0.28303,-0.23198,0.45663,0.25257,-0.053506,-0.15551,0.09954,0.048536,0.22718,-0.61459,-0.43612,0.25257,0.55867,-0.002503,0.32914,-0.38505,-0.53814,0.73723,0.30364,-0.18098,-0.53807,-0.61457,0.074038,0.38006,-0.28311,0.40561,0.25263,-0.002467,-0.078972,0.38014,-0.13003,-0.25753,0.1251,0.53318,-0.027974,0.22712,-0.74212,-0.28303,-0.20658,-0.18105,0.50766,-0.30856,0.40563,0.17608,-0.28302,-0.38505,0.40565,0.099564,0.86478,-0.94627,0.58424,-0.23202,0.22712,0.074038,-0.18105,-0.35956,-0.46154,0.15057,0.40567,0.3291,-0.053506,-0.00251,-0.078996,-0.28299,-0.5891,0.12504,0.27812,1.426,0.25262,-0.61469,-0.53818,-0.23207,-0.053446,-0.25751,-0.33401,0.17605,0.15058,0.023041,0.023041,0.38012,0.25265,-0.33408,-0.38506,0.35465,-0.23204,0.17606,0.45663,-0.43608,-0.84415,-0.66556,0.32912,0.76267,-0.002516,-0.25756,-0.002497,0.12509,-0.10444,0.048555,0.40563,0.2016,-0.33404,-0.002467,-0.33409,-0.053488,-0.027944,0.35467,-0.002472,-0.23205,-0.15553,0.38016,0.022998,0.22704,-0.18101,-0.43604,0.89029,0.30367,-0.61463,0.20155,0.32911,-0.20655,-0.028036,-0.28302,-0.46156,-0.181,0.40564,-0.18098,-0.053476,0.048518,0.074013,0.45664,0.35459,-0.002443,-1.0482,-0.10447,0.023029,0.12508,-0.13002,0.73726,0.2271,-0.027987,-0.58914,-0.10451,0.074038,-0.12998,-0.7166,-0.4871,0.68619,0.76273,0.099564,0.12505,0.32915,-0.46157,0.048555,-0.002516,-0.51263,-0.002448,-0.078935,0.7628,-0.13001,-0.58916,-0.028023,-0.30856,0.60969,0.023072,0.09957,-0.13001,0.07402,-0.33405,-0.002461,0.40566,0.63521,-0.15552,-0.35954,0.023047,-0.18103,0.15049,-0.33405,-0.9971,0.22713,0.07402,0.4566,0.20155,0.074008,0.60968,-0.25751,0.45667,-0.43607,-0.43605,0.43116,-0.56358,-0.1555,-0.078984,0.25256,0.45662,0.86475,-0.10449,-0.25755,-0.58912,-0.23203,0.048518,0.048536,-0.15549,-0.12992,-0.00243,0.73721,-0.15554,-0.20655,0.15057,-0.10452,0.83929,0.58424,-0.35956,-0.61465,-0.33409,-0.86973,0.60973,0.45666,-0.18101,0.50766,-0.15548,-0.46154,0.17606,-0.23202,-0.053531,-0.13004,0.25258,0.2526,0.15058,0.15059,0.099564,0.048531,-0.078984,-0.00243,-0.20649,-0.18102,0.30359,0.96681,-0.5891,-0.43612,-0.10452,0.099559,0.074062,-0.027962,-0.18102,-0.28308,0.91581,-0.12997,-0.33406,-0.23203,-0.002479,0.91579,-0.84422,-0.56359,1.1199,-0.13004,-0.15551,0.38015,0.048494,-0.028036,-0.13002,-0.35949,-0.18098,0.20158,0.2781,0.074033,0.099546,0.55872,0.17605,-0.28306,-0.10444,-0.48706,0.12509,-0.30856,0.27808,0.30358,0.023041,-0.2065,-0.56358,-0.46161,0.76275,0.68627,-0.66564,0.4822,-0.23204,0.27808,0.07402,-0.4871,-0.71665,-0.6146,0.074008,1.0433,0.38014,-0.002461,-0.078996,-0.181,0.17607,-0.053488,0.17612,-0.56365,-0.20655,0.22712,0.50769,0.07402,-0.027987,-0.07899,-0.027993,-0.1045,0.023041,-0.28306,-0.30855,0.2016,-0.15551,1.579,0.55873,-1.0482,-0.81871,-0.33409,0.83923,0.40569,-0.64006,-0.46162,-0.15559,-0.078959,0.20161,0.4056,0.048506,0.53317,-0.053506,0.30364,-0.10442,-0.23202,-0.20653,0.023029,0.48217,-0.18103,-0.20653,0.55871,-0.25753,-0.078984,-0.25754,-0.18106,-0.002497,-0.15543,-0.30848,-0.41058,0.4311,0.91576,0.3036,-0.25754,0.27813,-0.53815,0.20155,-0.002491,-0.20649,-0.33402,0.15058,-0.28305,-0.56362,0.2016,1.1454,0.099546,-0.181,-0.25755,0.048512,0.074038,0.074087,-0.027998,0.074051,0.023072,0.048512,0.099559,-0.58905,-0.74212,-0.079051,0.12504,0.78828,-0.079021,0.30363,-0.002454,-0.28304,-0.35959,0.60973,0.074062,-0.053506,-0.027969,-0.10448,0.09954,-0.027974,-0.15547,-0.15551,-0.13002,0.099577,0.8393,-0.28307,0.099521,0.83926,-0.5381,-0.56354,0.023096,-0.35964,-0.1811,-0.079021,0.3291,-0.30854,-0.181,0.32915,1.0689,0.15062,-0.48706,-0.20652,-0.25757,-0.81873,0.2526,0.48218,0.40567,-0.30851,-0.28302,0.048494,0.22706,0.22708,-0.12998,-0.23202,0.074026,-0.18102,0.66081,-0.46156,-0.002472,0.6352,-0.43611,-0.23205,-0.48711,-0.1555,-0.23202,0.45669,-0.079002,-0.28306,1.4515,-0.43604,-0.28305,-0.28306,-0.079033,-0.10449,0.35463,-0.027993,0.6607,-0.25751,-0.33405,-0.18103,-0.1555,0.58422,0.20159,-0.027998,-0.69117,-0.61466,1.2729,-0.48707,-0.43607,0.099546,0.15056,-0.25759,-0.20654,0.023047,0.81379,1.273,-0.15546,-0.56365,-0.51263,-0.41058,-0.43609,0.15052,0.30361,0.40571,-0.20648,-0.30855,0.20161,0.60969,-0.25754,-0.25754,0.2526,-0.15553,-0.027974,0.32911,-0.15551,-0.30851,-0.283,-0.23202,1.1709,0.022992,-0.41058,-0.23205,-0.079002,0.20166,-0.33404,0.25255,0.43114,0.17611,-0.30857,0.2526,-0.078959,-0.15549,-0.25756,0.25262,-0.33412,-0.51264,1.5025,0.48223,-0.9462,-0.81867,-0.13004,0.45664,-0.18105,-0.13002,-0.002503,1.0179,-0.20653,-0.35956,-0.74214,0.22711,1.0433,0.35461,-0.23203,-0.51261,-0.51262,0.074057,-0.002454,0.048567,-0.18106,0.12506,0.45664,0.023047,-0.18097,-0.2065,0.048525,0.20159,-0.053476,-0.00251,0.35461,0.09954,0.30361,-0.51249,-0.43601,-0.56358,0.048469,0.022998,0.32908,0.83925,-0.053476,-0.46156,-0.4871,-0.23199,0.12506,0.17607,0.048525,0.78825,0.25263,0.048543,-0.18101,-0.1045,-0.33405,-0.30851,-0.027987,0.45664,0.12508,-0.078996,-0.25753,-0.15554,0.048518,0.27813,0.45663,-0.74223,-0.41058,0.099644,0.60977,0.89027,-0.13005,-0.33405,-0.25757,-0.13005,-0.46166,-0.05347,0.58424,0.099559,-0.53809,0.2271,0.12507,0.38016,-0.46158,-0.15551,0.32913,-0.30852,-0.002461,0.12508,0.63518,0.35461,0.30363,-1.1758,-0.28305,-0.13,-0.10449,-0.05347,0.32909,0.15054,0.074057,-0.053488,0.81376,0.25259,-0.33405,0.22715,-0.51258,0.074087,-0.079026,-0.89525,-0.53813,0.12504,0.83927,0.25263,-0.078947,-0.35956,0.15057,0.53317,-0.43611,-0.053488,0.5587,-0.33407,0.048487,-0.053513,-0.38498,0.27819,-0.13,0.048494,0.3291,0.48216,0.099564,-0.13001,-0.53811,-0.25753,-0.15548,-0.20652,-0.56363,0.27811,0.60971,0.27812,0.12509,0.27809,-0.13002,-0.89518,-1.0483,0.48214,2.2932,-0.18108,-0.20656,-0.33409,-0.69115,-0.53807,-0.283,-0.1555,0.55866,0.53317,0.25262,-0.20652,0.12509,0.17608,-0.053488,-0.027969,-0.12998,-0.078977,-0.1045,-0.1045,-0.053488,-0.027987,-0.027987,0.023029,0.71176,-0.18101,-0.28306,0.17604,-0.027993,0.04858,-0.23198,-0.28303,0.20153,0.45668,-0.28298,-0.43604,-0.23205,0.81375,0.48214,-0.20653,-0.48711,-0.079021,0.048525,0.023096,-0.2065,-0.028011,-0.027944,0.20159,0.2016,-0.20651,0.43116,-0.64018,0.22709,-0.053495,0.45669
-0.053488,-0.002461,-0.053446,0.048549,0.099552,-0.002485,-0.027987,-0.053482,-0.027974,-0.027962,-0.002461,0.12507,-0.002461,0.048543,-0.053482,-0.078966,-0.002467,-0.02798,-0.002479,0.15055,0.023047,-0.053458,0.048536,-0.027974,-0.002461,-0.078959,0.023029,0.099534,0.074038,-0.002461,-0.10449,0.048549,0.048561,-0.078972,-0.02798,-0.002472,0.12504,-0.2575,-0.10447,-0.078984,0.099546,0.074044,0.17607,-0.027969,-0.002472,-0.053476,-0.02798,0.048536,-0.002467,-0.05347,-0.053482,0.17607,0.09957,-0.053464,-0.1555,-0.13,-0.15551,0.023029,0.12505,-0.002485,0.023041,0.15057,-0.002454,-0.10447,-0.053482,-0.053476,-0.027993,0.048531,-0.002454,-0.12999,-0.002454,-0.027974,-0.002467,0.023023,-0.027974,0.048555,-0.05347,-0.2065,-0.07899,-0.027987,-0.027969,0.15056,0.023065,-0.18097,0.074026,-0.002497,-0.027987,0.074057,-0.02795,-0.05347,-0.002472,0.074044,0.22708,-0.15549,-0.1045,0.15057,-0.078972,-0.07899,0.023047,-0.027969,0.048531,-0.002461,0.023035,0.15058,0.17608,-0.053476,-0.23202,-0.053488,0.074038,0.023041,-0.15552,0.099534,0.2526,-0.02795,-0.078984,-0.002454,0.023035,-0.002461,-0.10448,0.074038,0.048549,-0.078977,-0.05347,-0.002461,0.023029,0.099552,0.15056,0.17606,-0.05347,-0.232,-0.05347,0.25257,0.048543,0.099552,0.09954,-0.10447,-0.181,0.023035,-0.10448,-0.053476,0.023054,-0.027956,-0.002472,0.15056,-0.002461,-0.12999,-0.078984,0.099546,-0.002467,-0.10449,0.023035,0.15056,0.023041,-0.053476,0.023023,-0.078984,-0.05347,-0.053482,0.048543,-0.078984,-0.18101,0.09954,0.12509,-0.078959,0.048543,0.074038,-0.002461,-0.053482,-0.078984,-0.002461,0.023035,-0.027969,0.048555,0.023023,-0.13001,-0.053476,-0.027974,-0.027962,-0.15546,0.074051,0.048518,0.17606,0.099559,-0.002472,0.074044,0.023041,-0.181,-0.053476,0.099559,-0.002467,-0.18099,0.048549,0.20158,0.099564,-0.027987,-0.23203,0.048536,0.12506,0.023041,-0.027969,0.074038,-0.02798,0.09957,-0.053451,-0.18099,0.048549,0.074044,-0.053488,-0.13,-0.027993,-0.10447,-0.002443,0.15056,-0.053482,0.15056,0.12505,-0.053482,-0.20653,-0.053476,0.074075,-0.15548,0.099552,0.20157,0.048549,-0.12999,0.023054,0.15056,-0.20651,-0.18101,-0.053482,0.15056,0.023041,0.023059,0.023035,0.074033,-0.002467,-0.053476,-0.20652,0.12504,0.099559,0.023054,-0.12999,-0.027993,0.099552,0.074062,-0.027956,-0.20651,-0.15551,0.099559,0.023047,-0.10449,0.023041,0.15057,-0.002467,-0.12999,0.023029,0.023017,0.099546,-0.181,-0.51252,0.12504,0.17605,0.15056,0.12507,-0.053458,-0.12999,-0.002479,-0.053482,-0.053464,-0.027962,-0.053495,0.17607,0.099564,-0.002461,-0.078984,-0.053464,-0.13,-0.027974,0.099546,0.023041,0.15057,-0.10448,-0.053476,0.048549,0.099546,0.048531,-0.15551,-0.10447,-0.078966,0.074057,0.15057,-0.027969,-0.002472,0.12506,-0.027974,-0.23201,-0.053482,0.074038,-0.23202,0.099546,0.12508,0.048555,-0.027974,0.20156,0.023041,-0.13,0.099546,-0.12999,-0.2065,-0.002436,0.048536,-0.0535,-0.002461,0.22708,0.15057,0.12507,-0.002472,-0.1045,-0.002467,0.023035,-0.053464,-0.002467,-0.002479,0.048549,-0.002461,-0.078972,-0.002472,0.048531,0.099552,-0.027974,-0.027962,0.048536,-0.078984,0.074062,0.12505,-0.02798,-0.15552,-0.10449,-0.002472,0.099552,0.074044,0.023054,0.12507,0.25259,-0.232,-0.078984,0.048536,-0.078977,-0.1045,0.074038,0.099546,-0.078977,-0.053476,0.074062,-0.30851,0.099534,0.15056,-0.1555,-0.002472,0.074044,-0.053458,-0.002479,0.048555,0.12507,-0.12998,0.023023,0.023035,-0.078984,-0.23201,0.048543,0.12505,-0.027969,0.023054,0.023035,0.048531,-0.002461,-0.002467,-0.25752,-0.13002,0.12507,0.2271,-0.002443,-0.20652,-0.053482,0.048536,0.15056,-0.002461,-0.12999,-0.10449,-0.05347,-0.027969,0.023029,0.12507,0.048561,-0.053482,-0.12999,-0.07899,-0.027969,-0.078984,0.023029,-0.053464,0.17606,0.22708,0.048561,-0.027969,-0.078977,-0.10449,-0.18101,-0.053482,0.099546,0.074051,0.023054,-0.027956,-0.027962,-0.027987,0.023029,-0.053488,0.048549,0.023059,-0.027962,-0.23202,-0.027974,0.099559,0.17607,0.099546,0.048549,0.074051,-0.15549,-0.002467,-0.002479,0.099546,0.048531,0.12505,0.12507,-0.1045,0.074062,-0.002467,-0.002454,-0.002454,0.048543,-0.078972,-0.002472,0.048531,0.074051,0.074038,-0.078972,0.023041,0.12504,0.074044,0.023041,-0.078977,-0.10448,-0.027969,0.15057,-0.10449,-0.027956,0.048549,-0.10449,-0.1555,-0.053476,0.17606,0.20156,0.048536,-0.027962,-0.053482,-0.027974,-0.002467,-0.027969,-0.027974,-0.12999,0.023041,0.15057,0.023047,-0.181,0.023029,0.023047,0.15057,0.12506,-0.027962,-0.002479,-0.053488,0.074044,0.074062,-0.027962,0.074044,-0.07899,-0.0535,-0.1045,0.15056,-0.12996,-0.12998,-0.30852,0.074038,0.35459,0.12505,-0.053476,0.023047,-0.18099,-0.078977,0.1232,-0.002479,-0.002472,0.074038,0.023035,0.15057,-0.002454,-0.002454,-0.12999,-0.07899,0.074033,-0.002479,-0.1045,0.074057,0.048561,0.048549,-0.13,0.023023,-0.1045,-0.18101,-0.002454,0.099583,0.048567,-0.002467,0.048543,0.12503,0.099546,0.023029,-0.18099,-0.002467,0.023029,0.12504,0.023047,0.074062,0.048536,0.023035,-0.053488,0.099564,-0.027956,-0.002461,-0.078972,-0.05347,-0.10449,0.023017,-0.078996,0.023047,0.074075,0.074075,-0.027974,-0.002491,-0.13,-0.053476,0.023054,-0.027962,0.074057,0.074044,-0.079008,-0.10447,0.12507,-0.28308,0.2271,0.38019,-0.078953,-0.028005,-0.38511,-0.28306,0.94129,-0.20652,0.074062,-0.12999,-0.69117,-0.027925,0.15064,-0.30857,-0.33418,-0.43612,-0.58918,1.4515,1.1964,-0.1045,-0.12996,-0.078917,-0.71668,-0.76771,-0.48714,0.50771,-0.92073,3.7215,2.3697,-0.97172,-2.4511,-1.992,-1.0738,-1.3289,1.5535,0.099595,1.579,0.32908,-0.35956,0.099564,-0.61464,0.53316,0.38009,0.81379,2.3698,-0.33399,2.2932,-1.3034,-2.3237,-1.89,-0.53811,-0.61465,-0.33406,-1.4309,0.17612,0.50766,0.63522,-0.69115,2.931,2.1146,3.339,-1.2779,-2.0941,-1.2268,-2.5787,-1.2013,1.0688,2.9564,-0.2065,-2.1451,-1.0483,1.7832,1.0943,1.63,-1.7625,-1.7114,-1.0227,0.25245,0.17602,0.30364,0.30368,0.32907,-1.0483,1.5281,1.0688,1.8596,-0.027944,-0.35953,0.4566,-0.56365,-1.5839,0.074111,-0.94625,-0.84426,-0.76775,1.477,-1.89,1.2729,-1.9921,4.3593,2.0892,-0.053433,-1.0993,-0.53807,-0.74219,-1.0228,-0.76772,1.2219,0.48216,-0.078996,-0.28304,-0.79318,0.048555,-0.43598,0.12504,0.43115,0.91576,0.58417,0.023072,-1.4054,-0.38507,1.1964,-0.35954,-0.35962,0.83921,-0.66565,-0.69114,0.27812,0.1251,-0.58913,-0.51257,-0.99729,1.7065,-0.12999,0.38013,-0.33411,-0.53811,2.0382,-0.15554,-0.6657,0.0485,-0.5891,-0.97165,0.099608,0.048525,0.35458,0.38016,-0.41059,-0.20655,0.35464,0.35464,-0.41058,-0.23198,-0.15542,0.048469,1.477,0.048536,-0.46167,0.63522,-0.6146,-1.4308,-0.74217,0.023029,2.6758,0.63522,0.27809,-0.69116,-1.0228,-0.41061,-0.61462,-0.41051,0.22712,0.50766,-0.53815,0.1761,2.1146,1.732,-1.0993,-0.53811,0.78828,-0.66565,-0.078984,-0.99727,-0.15551,-0.20649,-0.97177,0.60974,0.17612,0.48217,-0.58915,0.099559,-0.51257,0.73721,0.099546,0.63518,-0.053495,-0.30855,-0.86971,0.71177,-0.23202,-0.46162,-0.23201,-0.027969,0.25257,0.3036,-0.23204,-0.12998,1.0178,-0.51257,-0.71657,-0.18104,-0.43617,1.0433,1.9871,0.17605,-0.94626,-1.0738,0.58424,1.2984,-0.053519,-0.61467,-1.2523,-0.79316,-0.15552,0.27812,0.17607,0.96679,0.40567,0.50772,-0.30858,0.3036,-0.69116,0.023047,0.30359,0.17604,-0.20649,-0.23205,0.099559,-0.38504,0.12509,0.048567,-0.33409,0.048536,-0.23205,0.9668,0.35465,-0.94617,-0.92072,-0.81874,0.073995,1.6299,0.96686,-0.48706,-1.2013,1.1199,-0.48715,0.43108,-0.41057,-0.053488,0.35461,-0.10449,0.023096,-0.38505,0.048531,0.38014,0.048561,-0.43609,-0.33409,0.22714,0.48219,-0.53814,-0.053549,-0.3851,-0.15548,0.89031,0.45666,0.73725,-0.23209,-0.28302,-1.0227,-1.4308,0.32917,1.2984,-0.10452,-0.13003,-0.28303,-0.30855,-0.002503,1.2219,-0.002479,-0.38505,0.15061,-0.027944,-0.53811,0.17606,-0.43609,0.2526,0.89029,0.68626,-0.10451,-0.20653,-0.28308,-0.38512,-0.56359,-0.5891,-0.30858,0.25257,0.38014,0.30363,1.0179,-0.078977,0.023041,-0.69113,-0.079008,0.96677,-0.48714,0.53322,-0.3851,-0.078972,-0.46158,-0.20656,-0.027962,-0.15549,0.38012,0.73725,0.86475,-0.20655,-0.76763,-0.66561,-0.51269,-0.35965,1.1454,-0.28297,-0.30857,0.8137,0.25255,-0.23201,-0.79318,-0.23203,0.35466,0.38015,0.023035,-0.28302,0.12507,-0.02798,-0.38507,0.1506,0.35464,0.20156,-0.38507,-0.58916,-0.81871,0.30366,0.2781,1.2729,0.40563,0.58414,-0.43616,-0.97172,-1.2267,-0.28302,-0.028023,1.0433,0.17604,0.02301,-0.002472,0.074075,0.22712,-0.002423,0.15057,-0.10449,0.20159,-0.053476,0.099577,0.50768,0.074051,-0.74217,0.048555,-0.56367,-0.30858,0.3036,-0.30852,1.579,-0.181,-0.30858,-0.28308,0.074062,0.30367,-0.48711,-0.38503,-0.15551,-0.20655,0.91576,0.32912,0.89031,-0.002472,-0.56361,-0.053482,-0.35956,-0.41054,-0.41058,0.35459,0.30363,0.71175,-0.1555,-0.86968,0.7628,0.86477,-0.69119,-0.81871,-0.56362,-0.18103,0.048536,0.27808,0.023041,-0.4616,1.426,1.6555,0.58421,-1.0483,-0.79321,-0.4616,-0.41053,-0.64007,-0.48708,0.68618,0.58419,-0.30861,0.023023,0.25262,0.17609,0.074013,-0.078977,-0.28298,0.1761,0.12502,-0.002461,-0.38505,0.2526,0.38012,0.048531,-0.53807,-0.23204,0.17603,-0.12998,-0.15542,0.20158,1.4004,-0.3086,-0.33409,1.1708,-0.97172,-0.74216,-0.4106,0.12508,0.27814,0.38014,0.12507,-0.027956,-0.02795,-0.1555,-0.46159,0.55869,-0.64019,0.27809,0.73725,-0.46158,-0.48713,0.38016,0.17611,0.04858,-0.1555,0.2271,0.76271,-0.79323,-0.35953,-0.38502,-0.30853,0.4821,0.4566,-0.027987,0.27811,0.45667,0.32915,-0.078959,-0.66564,0.20165,0.25252,0.63521,-0.92072,-0.41052,-0.12999,-0.13005,0.30361,0.09954,-0.05347,0.023029,0.12507,0.1506,0.074062,-1.0228,0.5332,0.83928,0.22709,-0.69111,-0.33401,-0.20658,0.074013,1.1964,0.074051,0.12505,-0.79319,-1.3543,-0.10446,0.35461,0.20152,0.22711,0.048549,-0.0535,-0.002485,0.20164,-0.20653,0.12505,0.32919,1.1709,0.099552,-0.20653,-0.33409,-0.64018,-0.64018,0.099595,0.074057,0.022998,0.48219,-0.027925,-0.078935,-0.58913,0.35456,0.38015,0.15058,-0.48713,1.0434,-0.41058,-0.18105,0.68626,-0.078977,-0.69118,-0.61458,-0.232,0.40555,0.53314,-0.61463,0.15059,0.58417,0.63526,-0.28303,-0.20649,-0.20654,0.27809,-0.30856,0.07402,0.86475,-0.79316,-1.0992,1.7321,-0.51269,-0.69119,-0.25753,0.35469,-0.13,-0.28304,-0.027974,0.099552,-0.053482,0.17607,0.71173,0.20163,0.074038,-0.10451,-0.25753,-0.33402,-0.25757,-0.181,0.099559,0.45664,0.91578,-0.10448,-0.53807,0.25263,-0.74219,-0.94626,0.55867,-0.3851,0.48209,0.099552,-0.002448,-0.10447,0.50768,0.17609,-0.027956,-0.18098,-0.053482,0.38011,-0.23202,-0.33405,-0.18106,0.68622,0.91582,0.71173,-0.81876,-1.2269,-0.078947,0.04861,0.048567,-0.38513,-0.00251,0.63523,0.074062,-0.71668,0.023072,0.048567,-0.027987,-0.33402,0.63525,0.35465,-0.002497,0.25259,-0.28305,-0.23205,-0.002448,-0.23201,-0.13002,-0.079002,-0.027962,0.20156,0.27811,0.12505,0.099552,-0.23205,-0.20656,-0.43604,-0.38495,-0.71663,-0.028005,0.94124,0.91576,-0.13007,-0.41056,0.96684,-0.20652,0.35468,-0.56363,-0.028042,-0.13003,-0.28302,-0.30853,-0.12997,0.32908,0.48216,0.17608,-0.1555,0.15059,0.15056,-0.33407,-0.078959,0.50766,0.76277,-0.12997,-0.71665,-0.41061,0.12505,-0.15553,-0.35954,-0.35959,0.12506,1.3494,-0.05347,0.048561,0.27812,-0.64018,-0.15551,0.58423,-0.33406,-0.078996,-0.28306,-0.33406,0.63526,0.53323,-0.053495,-0.56364,-0.46159,0.048531,-0.25756,0.76275,0.20156,0.30369,-0.58909,-0.10454,0.12501,0.099588,-0.30849,0.17606,0.40559,-0.002461,0.22712,-0.28298,-0.25754,0.15052,0.12508,-0.3085,-0.38509,0.25255,0.5332,0.22708,0.48221,-0.89523,-0.56365,0.27812,0.27809,-0.86975,-0.35955,0.25265,0.78825,-0.38505,0.38017,-0.10452,0.22705,-0.10454,0.25259,0.099577,-0.20653,-0.25757,-0.33402,0.099601,0.15061,-0.028018,-0.25756,0.20159,0.66074,-0.002467,-0.079002,-0.28304,-0.84423,-0.079008,0.45668,-0.078947,0.78825,0.25257,-0.002516,-0.6656,-0.66557,-0.028029,0.71171,-0.053525,-0.18105,0.25257,0.68622,-0.079002,-0.46155,-0.002448,-0.41058,0.43115,0.71177,0.40568,-0.079021,0.074062,-0.66567,-0.25754,-0.23205,-0.74217,-0.46162,0.81377,1.8086,0.60972,-0.28303,-0.61467,-0.5891,-0.53812,-0.15554,0.68624,-0.18103,-0.23201,-0.12996,0.15058,0.40561,0.09954,0.074062,0.55873,0.099564,-0.23205,0.35463,-0.053525,-0.15554,-0.2575,-0.18101,-0.18102,0.25265,-0.35957,-0.33399,0.4056,-0.10447,-0.23205,-0.58919,0.30361,1.9106,1.3495,-1.0483,-0.51268,-0.43607,-0.74209,-0.35949,-0.20658,-0.053525,0.30364,0.17605,0.30356,-0.02798,0.81384,-0.46158,-0.002472,-0.25752,-0.078941,-0.28307,0.20155,0.25262,0.22708,-0.002516,-0.20653,0.023054,1.0178,-0.53806,-0.25748,-0.48708,-0.58918,-0.33412,0.58416,0.68625,-0.10447,-0.2065,-0.079002,-0.28304,-0.12998,-0.15553,0.71173,0.023072,-0.18098,0.09954,-0.027969,-0.28305,0.048536,0.96679,-0.4871,-0.002461,-0.053495,0.20157,-0.0535,-0.25753,-0.18102,-0.33405,-0.56361,-0.81872,1.783,1.8851,0.048573,-1.4053,-0.58914,-0.48714,-0.51264,0.074057,0.074069,-0.078996,0.25259,0.15062,0.40565,-0.30858,0.20159,-0.053464,0.83929,0.22711,-0.48711,-0.71663,-0.20654,0.40564,0.074051,-0.20651,-0.12999,-0.053525,-0.053476,0.27816,-0.30851,0.40564,0.60963,-0.33407,-0.86968,-0.33404,0.38013,0.81373,0.9923,-1.3288,-0.61461,-0.1555,0.023035,0.53319,0.074044,-0.027987,0.48219,0.27808,-0.15552,-0.4871,-0.25753,-0.18101,0.63524,0.048512,0.60971,-0.15549,-0.30858,-0.027969,-0.053495,0.40565,-0.12998,-0.20658,-0.46161,-0.56355,-0.078947,0.30357,0.53313,0.38011,0.3291,-0.61462,0.32911,-0.053427,0.94128,-0.38506,-0.10447,-0.33406,0.40567,0.023035,-0.43612,-0.25754,-0.25754,-0.079002,-0.12998,-0.078984,0.38016,0.45666,0.20157,0.25264,0.2271,-0.053482,-0.5636,-0.43609,0.45662,0.9923,-0.51262,-0.2065,-0.38508,-0.027969,-0.027969,0.27814,-0.4106,0.94132,0.15056,-0.7677,-0.28305,-0.15548,0.023047,-0.15551,-0.38509,0.17606,0.83929,-0.053458,-0.18099,-0.13002,0.023054,0.074044,-0.053519,-0.15554,-0.12999,0.86482,0.63518,-0.053525,-0.69112,-0.61456,-0.53813,-0.28309,0.3036,0.2781,0.58417,-0.002472,-0.46156,-0.15543,0.023035,0.30359,0.50766,-0.15553,0.099559,0.40565,-0.3851,-0.89518,0.023047,-0.00251,0.12513,-0.38495,-0.43605,1.2473,0.45661,-0.2066,-0.30859,0.12506,0.35462,-0.18097,-0.41055,-0.002454,-0.20653,-0.28306,0.63524,1.0178,-0.23205,-0.56362,-0.5126,-0.58915,0.43116,-0.15551,-0.028018,0.53319,0.32915,0.20158,-0.13001,0.20162,0.099534,-0.079002,-0.61458,-0.53804,-0.18099,0.58417,-0.079045,-0.81875,1.1964,1.6045,0.48219,-1.0993,-0.71666,-0.61461,0.17609,-0.002461,-0.33404,0.023029,-0.15557,0.68622,0.048525,-0.02798,-0.12998,0.32913,-0.18098,0.074111,0.15055,0.60966,-0.66565,-0.38503,-0.28304,0.074038,0.25257,-0.002479,-0.18103,-0.15553,0.20161,0.43121,0.81379,-0.38509,-0.1555,-0.66566,-0.56362,-0.48711,-0.10453,0.20159,0.2526,0.7373,0.43118,-0.61463,-0.13002,-0.027969,-0.05347,-0.13001,0.15056,0.099534,0.43117,0.68626,-0.25754,-0.053525,-0.58914,-0.89511,-0.51258,0.66069,0.074026,-0.13002,0.27806,0.81375,0.71173,-0.28298,-0.38508,-0.28306,-0.1045,0.63522,0.30364,-0.12999,-0.84421,-0.078984,0.17609,-0.053476,-0.13,-0.15549,0.35458,-0.58917,-0.15543,0.43119,0.99232,-0.10454,-0.38513,-0.46167,-0.10449,0.22718,0.48226,-0.23203,0.073989,0.022998,-0.002485,0.048573,0.099552,-0.12999,0.074038,-0.02795,-0.15548,0.76278,0.25258,-1.2268,-0.56367,1.0433,0.5332,0.32913,-0.35957,-0.46161,-0.46162,-0.15552,-0.10449,0.17607,0.68623,-0.12999,-0.10451,0.58421,0.58427,-0.027987,-0.25755,-0.64013,-0.46157,-0.002497,0.17603,0.15053,0.22707,0.17607,-0.25751,0.30364,0.17609,0.71177,-0.002423,0.38016,-0.92074,-0.7677,-0.33409,-0.46159,0.048573,0.94128,0.22705,0.023023,-0.027987,0.48219,-0.053519,-0.48711,0.2782,0.27819,-0.23205,-0.46162,0.22707,-0.10452,-0.02798,-0.13002,-0.13001,0.27813,0.27811,-0.0535,-0.12998,-0.10448,-0.20652,0.12509,-0.027962,0.81379,0.32912,-0.74218,-0.46161,-0.18105,-0.35959,0.25259,0.4822,-0.33405,-0.5126,0.73726,-0.18104,-0.15554,-0.18103,-0.58907,0.43118,0.48215,0.099534,-0.053506,-0.053476,0.25263,0.048561,-0.18101,-0.13001,-0.15551,-0.12999,0.45667,-0.66565,0.99238,-0.053495,-0.46162,-0.4106,-0.4106,-0.25755,-0.1045,0.023047,0.15059,0.58422,0.048549,0.0485,0.0741,-0.20649,-0.35958,0.38007,0.12502,0.48224,-0.053446,-0.41058,-0.38513,-0.3341,0.30366,-0.002418,0.2271,0.022998,-0.25756,-0.20652,-0.05347,-0.13001,0.38017,0.023029,0.099559,0.58425,-0.13001,-0.41063,-0.64013,-0.20653,0.38013,0.35464,0.83922,-0.94622,-1.2268,1.8086,0.55863,-0.76774,-0.76773,-0.51261,-0.25753,0.40568,-0.18104,0.50771,0.58423,-0.12999,-0.38508,-0.07899,0.09957,0.45668,-0.25754,-0.28305,0.32911,0.099534,-0.18103,0.27814,0.35462,0.17609,-0.38506,-0.71662,-0.4106,0.27809,0.60977,-0.30854,-0.4106,-0.053537,0.55867,-0.28306,-0.66564,0.17611,0.4822,0.53321,0.32914,-0.58914,-0.66565,-0.38508,-0.18101,0.43114,-0.38508,0.68626,0.15056,0.15056,-0.053482,-0.56362,-0.30857,-0.10449,0.20161,0.32911,1.0688,-0.28307,-0.12998,-0.33396,-0.76766,-0.23209,0.27807,-0.25757,0.32914,0.15062,-0.053488,0.099564,0.30363,-0.18101,-0.15549,-0.18101,0.048536,0.12509,0.099583,-0.002472,-0.027993,-0.053451,0.3036,0.048536,-0.38506,-0.33407,0.35462,-0.078966,-0.079008,-0.181,0.27811,-0.28308,0.40566,0.81379,-0.10453,-0.38503,-0.66559,-0.28305,0.12505,0.074026,-0.079033,-0.002497,1.1964,0.12509,-0.002461,-0.94623,0.2016,-0.15548,-0.181,1.2219,0.074044,-0.3851,-0.56364,-0.56362,-0.23205,-0.002491,0.22708,0.074069,0.15057,0.17609,0.09957,0.074044,0.15061,-0.027987,0.09954,0.20162,0.2526,-0.46161,-0.58913,0.27809,0.12505,-0.3085,0.20167,-0.41058,-0.43612,-0.10451,0.3291,0.66068,-0.3851,0.2526,0.074075,0.20157,0.25265,-0.33404,-0.23203,-0.18103,0.91581,0.38015,-0.35956,-0.28304,-0.51262,-0.58916,0.074051,0.25262,0.27809,0.25257,-0.20652,-0.76761,-0.43601,0.30361,1.0688,-0.079039,-0.23207,0.83926,0.099546,-0.58916,0.38017,-0.28305,-0.30858,-0.25753,0.1506,0.73731,-0.4361,-0.35959,-0.28305,-0.10448,0.074044,-0.002485,0.48218,0.32913,0.38014,-0.07899,-0.8187,0.43115,0.048536,0.048512,-0.053544,-0.81868,-0.7421,0.53323,0.81378,0.83925,-0.3341,-0.002491,-0.23203,-0.53811,-0.002443,0.12505,0.074038,0.023054,0.12511,0.25262,-0.30858,0.15059,0.099564,0.71173,-0.33411,-0.71662,0.20156,-0.18102,0.074057,0.17604,0.50769,-0.28302,-0.35956,-0.58905,-0.002479,0.17602,-0.079014,0.43117,1.5535,-0.053513,-0.28308,-1.3289,-0.46157,0.35467,1.7065,-0.33406,-0.28309,-0.18103,-0.53811,-0.69114,-0.30856,1.4515,0.68619,0.86479,-0.71666,-0.86971,-0.35956,0.27809,0.12507,-0.23203,0.048543,0.074038,0.099559,-0.2065,-0.41054,0.7628,0.40562,-0.23209,-0.002472,0.2526,0.20158,-0.43605,-0.43607,0.022998,-0.18099,-0.07899,0.15057,-0.027962,-0.027956,0.099564,0.074038,0.22707,0.023035,0.12507,-0.10447,0.09954,-0.181,-0.1045,-0.027969,0.074081,-0.20649,0.55867,0.81377,-0.61467,-0.76772,-0.079008,-0.28308,-0.25756,0.89033,0.43123,-0.053451,-0.43611,0.15054,-0.13005,-0.027987,-0.25753,-0.23204,-0.02798,1.4515,0.55872,-0.18105,-0.25754,-0.38507,-0.23204,-0.23203,0.30364,-0.23203,0.32912,-0.15553,-0.28304,-0.002436,-0.053476,0.6352,-0.61471,0.25259,-0.078898,0.048634,-0.20653,-0.18106,-0.20656,-0.079021,-0.13004,0.40565,0.30365,-0.053495,0.2526,0.76276,0.38018,-0.33402,-0.46159,-0.181,-0.002497,-0.4106,-0.079021,1.1964,-0.53812,0.2271,0.27811,-0.71668,0.09954,-0.25754,0.45664,-0.15548,1.1455,-0.18095,-0.3596,-0.35964,0.20152,0.58416,0.15056,0.30366,0.25263,-0.43608,-0.71668,-0.41057,-0.05347,0.074026,-0.078959,0.023072,0.40567,0.43113,0.12506,0.023023,-0.10449,-0.43611,0.35464,-0.002479,0.25259,-0.079008,-0.13004,-0.64011,-0.71656,-0.23201,0.22702,0.15055,0.68619,0.9923,0.074044,-0.33407,0.099608,-0.18101,-0.30856,-0.51262,0.12505,0.5077,-0.38509,0.38016,0.048536,-0.027993,0.27811,-0.027969,-0.48713,0.35464,0.50769,-0.18108,0.099559,-0.66558,-0.10445,-0.053525,0.60965,0.89027,0.25263,-0.71669,-0.30858,0.074051,-0.23201,-0.38506,-0.33407,0.25259,0.91583,0.32914,-0.18105,-0.13001,-0.13,0.32913,-0.13004,-0.41054,-0.18101,-0.02795,0.48214,0.45669,-0.28303,-0.20652,-0.053519,-0.10453,-0.28311,-0.23202,0.89042,0.048616,0.48216,-0.002546,-0.15554,-0.58916,-0.56365,-0.38507,0.023059,0.48217,0.17607,-0.30852,0.02309,0.45671,-0.69115,-0.079026,0.50763,0.20156,0.15054,0.099546,-0.18102,-0.002497,-0.053446,-0.51249,-0.48706,-0.43612,-0.2066,0.30359,0.25258,0.58419,-0.1555,1.0689,-0.58913,-0.81868,-0.05347,0.66074,-0.13,-0.33409,0.27813,0.09954,0.023029,-0.027956,0.048555,0.25257,0.15059,0.12505,0.074038,-0.078959,-0.078972,0.048561,-0.18099,0.50766,-0.10452,-0.18101,-0.46156,-0.027962,0.02298,0.073995,-0.10439,-0.10441,0.30358,0.073995,0.25256,-0.3596,0.2271,-0.43604,-0.027969,-0.33406,-0.48711,-0.078977,0.12509,0.2271,0.20158,0.1251,0.048549,0.38013,-0.078959,-0.33403,0.074051,-0.10453,-0.1045,-0.23205,0.86478,1.0944,-0.66565,-0.46159,-0.61463,-0.30855,0.50764,-0.1045,-0.66561,-0.71662,0.27816,0.53316,0.63518,-0.027993,0.074044,-0.10453,0.81378,-0.002461,0.074069,0.25262,-0.38508,-0.20654,-0.12999,0.15059,0.07402,0.023047,-0.25755,-0.15553,-0.002443,-0.2065,0.099588,-0.20652,0.22701,0.58414,0.25267,-0.436,-0.66561,-0.33412,-0.002558,0.71171,0.2781,1.1199,-0.74217,-0.74217,-0.002479,-0.15551,0.048629,-0.15546,-0.13,-0.027993,-0.027974,0.6607,1.2219,-0.46161,-0.53809,-0.4106,-0.28308,-0.28307,0.20158,0.55871,0.3802,0.074106,-0.28307,0.15053,-0.35962,-0.20653,-0.053488,0.22708,-0.053439,-0.58908,0.53321,0.20158,0.20158,0.43113,-0.30856,-0.35959,-0.43612,0.55873,0.074044,0.94136,-0.33406,-0.38509,-0.43609,-0.33409,-0.13002,-0.027944,0.27811,0.074044,0.55868,0.30361,-0.25757,-0.23202,0.12507,-0.12999,-0.46147,-0.053427,0.55867,0.17604,-0.002565,0.25253,0.48218,0.25262,-0.35959,-0.30854,-0.66566,-0.35956,0.35469,0.53322,-0.18105,-0.46161,-0.30854,-0.18099,0.099552,-0.053488,0.22708,0.58418,0.81376,0.099559,-0.10449,-0.51263,-0.20655,0.12514,0.68628,-0.89526,0.38013,-0.51263,-0.027969,1.1964,-0.027993,-0.79319,-0.71662,-0.48709,0.32913,0.099559,0.45664,-0.053513,0.17607,-0.078959,-0.18097,-0.027969,0.023017,0.17605,0.20158,0.20156,0.81371,-0.15549,-0.58902,-0.56357,-0.25761,0.20153,0.73722,-0.053482,-0.002491,-0.10448,-0.43609,-0.38508,0.5332,-0.181,-0.25751,0.1251,0.6862,0.20157,-0.079002,-0.48708,-0.69115,-0.15553,-0.20653,-0.027969,0.38008,0.2781,-0.35944,-0.28297,-0.23201,0.53314,0.48214,1.2729,-0.30858,-0.33409,0.048567,-0.28308,-0.69116,-0.8952
