-0.078984,-0.12999,-0.02798,0.12505,-0.002467,-0.027962,-0.078984,0.12505,0.15057,-0.078972,-0.053482,-0.002479,0.12506,0.12505,-0.053464,-0.07899,0.099546,-0.002467,-0.002461,-0.15549,0.074057,0.048531,-0.1045,-0.10449,0.099559,0.074038,0.023041,-0.078966,0.074057,0.023041,-0.027956,-0.053482,-0.002479,0.048543,-0.027974,-0.1045,-0.002454,0.17607,-0.002461,-0.027962,-0.002461,0.023023,-0.07899,-0.027956,-0.053482,0.099552,-0.002448,-0.02798,-0.053476,-0.05347,0.048543,0.12507,0.023054,0.023029,-0.002448,-0.02798,-0.027969,-0.05347,-0.15551,0.074057,-0.027969,0.048531,0.074057,-0.053482,0.048531,0.048561,-0.10447,0.099552,-0.02798,-0.10449,-0.027987,0.023054,-0.002485,-0.027969,0.048543,0.048531,0.023035,-0.18102,0.12506,0.17608,0.048543,0.099546,0.048549,-0.10449,-0.002467,-0.078977,-0.13002,0.048549,0.023047,-0.10452,0.048555,-0.078977,0.074038,0.074062,-0.027969,0.099552,-0.12998,0.048531,-0.002467,-0.002467,0.048531,0.023041,-0.002467,-0.07899,0.023059,-0.027987,-0.053458,0.023029,0.023054,-0.027974,-0.002461,0.099546,-0.1555,0.023029,-0.002454,-0.078984,0.17607,-0.053476,-0.027962,-0.027969,-0.25752,0.099546,-0.027974,-0.078984,0.074038,-0.027962,-0.027974,-0.002461,-0.053464,-0.002479,0.099564,-0.053482,-0.13,-0.053464,-0.078984,-0.002461,0.023059,-0.002467,0.048549,-0.10448,-0.23203,-0.07899,-0.078972,-0.027987,0.048549,0.048561,0.023047,-0.027969,-0.20651,0.074051,0.22708,-0.053458,-0.027987,-0.027969,-0.027962,-0.027993,-0.078984,0.09957,0.099546,-0.027969,-0.15549,-0.027987,-0.002467,-0.027974,0.15056,-0.13001,0.023041,0.2781,0.023035,-0.15549,-0.027974,0.099552,-0.053476,-0.027969,-0.07899,0.099546,0.15057,0.074057,-0.027962,-0.1045,0.074038,-0.027974,-0.18101,-0.002472,0.15056,0.023041,-0.027956,-0.053476,0.023041,0.15056,-0.053476,-0.15549,0.048549,0.048531,-0.13001,-0.078984,0.12506,0.099564,0.048549,0.023023,-0.053476,-0.027956,-0.002485,-0.07899,-0.05347,0.099564,0.074038,0.17609,-0.05347,-0.053476,0.048549,-0.30855,-0.079008,-0.078984,0.099564,0.099564,-0.05347,0.12505,0.12507,-0.07899,-0.002472,-0.10448,-0.002467,-0.027969,-0.002454,0.023041,0.023023,0.099564,-0.002461,-0.002485,-0.13001,-0.12999,0.12505,0.023047,0.048561,-0.027974,0.048536,0.074057,-0.05347,-0.002467,0.099564,0.099546,-0.20652,-0.078972,-0.027974,0.074062,0.048567,0.048549,-0.07899,0.023041,-0.002467,0.023023,0.023047,-0.027969,-0.10449,-0.15549,0.023041,0.099552,-0.078984,-0.10448,0.099552,0.25259,-0.027962,-0.15551,-0.053482,-0.002479,0.048549,-0.10447,-0.053482,0.023029,0.048536,-0.10447,0.074057,0.074044,-0.07899,-0.078972,0.074062,0.023041,-0.12999,-0.07899,0.099546,0.17609,-0.07899,-0.15551,0.12505,0.12507,-0.053458,-0.027974,-0.10451,0.048525,-0.002461,-0.053464,0.074057,-0.1045,0.023023,0.12508,0.023047,-0.078972,-0.002461,0.15056,0.023029,-0.027969,-0.05347,-0.079002,-0.002467,-0.078977,-0.10447,0.099564,0.048531,-0.1045,-0.07899,0.15056,0.048543,0.048561,0.023041,0.074044,-0.053488,-0.002454,-0.002467,0.074038,-0.10449,-0.078972,-0.027974,-0.1045,0.023054,0.22712,-0.078984,-0.15551,-0.078977,0.023047,-0.15551,-0.1555,-0.027974,0.15056,-0.027962,-0.10448,0.099546,0.048555,-0.027974,-0.181,0.023035,0.22708,0.048549,-0.181,-0.1045,-0.027987,-0.002461,-0.078972,0.099564,0.20158,0.12505,-0.002467,-0.002454,0.048531,-0.053482,-0.002467,0.15057,-0.002467,-0.1555,0.12505,-0.053482,-0.053488,-0.18101,0.17607,0.074062,0.17609,0.074069,-0.18102,-0.002485,-0.053482,-0.12999,0.023035,0.023047,0.048536,-0.027956,0.023047,0.048536,0.074057,-0.10448,0.048536,-0.02798,-0.15549,0.023035,0.12508,0.074057,0.023029,-0.181,-0.15551,0.023023,-0.10447,-0.002467,-0.002467,-0.12999,-0.002467,0.17607,-0.027962,-0.23202,-0.002461,0.099559,0.099559,-0.1555,-0.002467,0.074044,0.048549,-0.05347,-0.027974,-0.02798,-0.027969,-0.027962,-0.053482,-0.002467,0.048536,-0.027974,0.12507,0.074069,-0.078977,0.074051,-0.1045,-0.1555,0.023041,0.099552,-0.053482,-0.05347,0.09954,-0.10449,-0.078972,0.023041,0.048525,-0.002461,0.048549,0.15058,-0.053488,-0.027974,0.048531,0.023029,-0.10448,0.023035,0.048531,0.023047,-0.05347,0.023029,-0.053464,-0.13001,0.074038,0.1506,0.074051,0.15057,-0.15549,0.023041,-0.15551,-0.053476,0.023029,-0.10449,0.15056,-0.10448,0.12505,0.023047,-0.027969,0.074044,-0.027962,0.023035,0.074057,-0.10449,0.074038,-0.05347,0.023023,0.023041,0.048555,-0.078996,-0.15551,-0.13001,-0.053482,0.15058,0.27812,-0.10452,-0.18101,-0.078972,-0.053476,0.023035,-0.078977,-0.02798,0.074038,0.023054,-0.002461,0.023023,0.17609,-0.053464,0.20158,-0.027956,-0.28305,-0.18102,-0.002443,0.023035,0.074057,0.0977,0.22521,0.1232,0.1487,0.22521,0.1232,-0.002467,0.023029,0.023035,0.048549,0.074038,-0.10449,-0.027956,-0.053482,0.048536,0.099559,-0.002467,0.074044,0.099564,-0.002454,0.023023,0.048549,-0.12999,-0.07899,0.074038,0.074057,-0.05347,-0.07899,-0.002461,-0.002454,0.023041,0.12507,-0.1045,-0.053476,-0.002467,-0.027993,-0.078996,-0.053464,0.048549,0.023023,-0.02798,-0.027962,-0.078972,-0.027974,0.023023,0.023041,-0.027962,-0.13,0.023035,-0.027962,0.099552,-0.10449,0.023047,0.048536,-0.002454,-0.002467,-0.078996,0.023035,0.023047,0.048549,-0.002491,-0.027962,0.023029,0.099564,0.023059,0.15056,-0.18101,-0.027998,-0.002467,-0.002467,0.12505,0.048555,-0.002472,-0.027974,-0.10449,-0.02798,-0.002461,-0.053464,-0.053482,0.20158,0.2526,-0.15549,-0.027987,-0.027993,0.023041,0.048549,-0.079008,-0.027974,-0.027962,0.023054,0.099552,0.048525,-0.002467,0.074057,-0.027987,-0.053482,-0.027969,-0.10449,0.12505,0.074069,-0.053482,-0.10452,0.099559,-0.027969,-0.027974,-0.10448,-0.027969,-0.053488,-0.027956,-0.002461,-0.002479,-0.002467,0.023035,-0.07899,-0.027956,-0.0535,0.099564,-0.078972,0.048536,0.048567,-0.002485,-0.002467,-0.12999,-0.13002,0.048549,0.074075,-0.002467,0.048549,0.048536,0.2016,-0.10449,-0.053495,-0.078972,-0.079008,-0.1045,-0.1045,-0.002467,0.60973,0.5587,-0.30858,-0.18102,0.048561,-0.079008,-0.28305,-0.41058,-0.71669,0.22708,1.2474,1.0434,-0.43611,-0.74219,1.0688,-0.81869,0.074062,-0.079008,-1.4564,-1.1248,1.1964,1.1454,1.6046,0.53316,-0.13004,-0.97178,-1.3544,-0.41059,1.8086,1.6301,-2.247,-2.6297,-2.5533,-1.7371,3.9511,3.4921,-0.46157,0.45667,-2.0941,0.27807,3.3899,-2.1195,-1.6349,0.60967,2.9058,-0.28302,-0.92098,1.8339,0.94136,-2.4767,-2.8595,2.9564,-2.2472,-5.8182,2.8037,1.273,6.4003,1.0943,2.1145,0.40541,-5.4357,-4.1857,-2.2725,3.3392,1.9359,2.7523,-1.2522,-1.329,0.12546,3.4158,-3.9562,-0.38492,-0.63965,2.9562,1.3745,-1.9671,-2.5537,5.7113,-2.247,6.0429,-0.30852,-4.1601,-2.7571,-3.7011,2.4972,-1.8386,5.3543,-1.3289,-0.51271,1.3235,-0.028158,-1.2268,-1.1249,0.50788,5.839,-0.053592,0.17594,-0.46178,-2.5277,-0.56342,-1.2521,-1.0226,2.9054,1.3239,-0.43618,-1.7626,1.3239,-0.51268,0.30356,-1.4309,1.4515,-3.1909,-0.18094,1.2984,1.2729,-1.7878,-0.76769,-0.69129,1.4003,0.20146,1.4513,-0.18105,0.099595,-0.69103,1.4516,0.12505,-0.46159,-0.66569,0.48214,2.4463,-1.9154,1.324,-0.002577,-0.71669,-1.6604,-1.5839,-1.2271,-0.97146,0.78857,2.8031,3.3133,0.27786,-0.35974,-2.2982,-0.35959,1.2983,-1.2523,1.6813,-1.0225,-2.3746,4.6401,0.2272,-0.94623,-2.7573,-2.2982,0.89026,0.38008,-0.002528,0.9668,-0.1556,0.099479,1.1708,0.55864,-0.30852,-0.10444,-0.895,-0.25734,0.099503,0.43105,1.8084,0.81362,-0.56378,0.66069,0.048567,-0.9207,-2.3746,-0.51266,2.4465,-0.6909,-0.25747,-1.1757,0.22705,0.48199,0.91556,-1.3544,-2.1448,-0.66536,1.1451,1.2727,1.4258,0.78816,-1.0993,0.25267,1.2219,6.4001,1.5536,-2.3236,-3.6755,-2.4767,-1.4819,3.2115,-0.23196,0.073946,-1.0739,-0.2577,-1.2778,-0.99688,-0.002314,0.58411,3.9,1.9869,-0.5893,-0.69137,0.86475,-0.84414,-0.027901,-1.2522,-2.757,-0.25736,1.0178,0.78816,0.9667,-0.002588,-0.30861,-0.41055,-0.92059,-0.56346,-0.2065,0.099546,1.9871,-0.56367,-0.13005,-0.61471,-2.2982,2.727,3.1605,-0.078966,-0.10447,-1.7371,-1.635,-0.41072,1.5534,-1.1247,2.0129,-0.23194,-0.53812,0.074062,-0.20656,-0.66584,-1.0994,0.17637,-0.23207,1.1708,1.2984,-1.3287,1.3494,1.2984,-0.028066,-0.46171,0.22705,-0.64011,-1.9155,-0.41053,-0.71659,1.5537,1.4261,-0.33404,-0.97179,-1.0229,1.9615,1.2728,-2.8593,0.83948,0.073946,0.278,0.78817,-0.56368,-0.69124,0.83922,2.8289,-1.5583,-2.1703,-0.74214,1.4004,-0.74219,1.2217,0.83931,-0.10467,-0.10461,0.023108,-0.15534,0.45672,-0.64023,-0.6402,-0.53812,0.96676,0.8137,1.4515,-1.0481,-1.2011,-0.43607,-2.0941,-0.56364,4.0276,0.12494,0.32907,0.50764,-1.0738,-0.05336,-0.20649,-2.7573,1.477,3.8236,-1.3799,-1.1503,0.17611,-0.79313,-0.053427,0.53323,-0.81879,0.35453,-0.6656,-0.97157,0.20153,0.25249,1.7064,1.1197,0.25245,-1.099,-0.74201,-1.8644,-2.6039,1.4004,2.9561,0.81353,-0.51281,-0.43621,0.53333,-0.58908,0.30366,-0.48706,-0.71666,-0.30855,-0.84422,0.55869,1.4515,-1.2523,-1.1757,-0.053311,4.1042,0.48204,-2.0177,-0.71679,0.02298,0.86469,0.20159,0.43103,-0.20667,-1.762,-3.2668,0.83958,0.71143,0.76242,0.91546,2.344,0.60965,-0.5636,-0.7931,-0.99716,-0.35951,-0.43605,-0.18106,-0.027962,-1.8135,0.32913,2.9055,3.9769,-1.6602,-2.1962,-0.23216,-0.079106,-0.38519,-0.79331,-0.1046,-0.28316,-0.79314,0.25279,0.50776,0.38015,-0.053439,-1.3034,-0.51274,3.1094,4.3592,0.48242,-2.859,-2.5787,-1.2778,-0.23224,0.15037,-0.053635,0.40556,0.78826,-0.92058,-0.48689,0.66086,0.15053,0.50759,0.20149,0.074136,0.6609,0.15054,0.048482,-0.89531,-0.64019,-0.28289,0.32924,0.99235,-0.10464,0.53315,-0.64027,0.30353,-0.35959,-1.2523,0.35478,-0.25745,0.99226,0.63512,0.48204,-1.1502,-0.58875,0.25273,-0.61472,0.86464,-0.15567,1.4514,0.2781,-0.13005,-1.9156,-1.1758,2.2422,1.5791,-1.3288,1.8851,-0.41057,-1.6603,-0.33413,0.073917,-0.69117,0.15049,-0.30846,-1.0481,0.83915,0.68623,0.074087,-0.13003,1.0177,1.3493,0.15054,-1.3287,0.48228,-0.079021,1.1199,-1.2524,-1.5329,-0.58909,2.5738,-0.23196,-0.74223,1.1964,-1.3034,-1.0484,1.0944,-0.23194,-0.76773,0.48226,-0.18107,-0.48722,0.35461,0.2781,-0.15553,1.3239,2.0892,-0.078879,-1.0993,-0.053482,-0.48713,-1.2524,-0.92083,0.83922,0.43135,-0.97155,-0.23203,-0.10453,-1.3799,0.58413,2.4972,-0.079075,0.048506,-0.48703,-0.94609,0.023157,0.48216,1.4514,-0.15571,-0.64024,1.4515,-0.43609,-0.20654,-1.2522,-0.84416,-0.30847,0.83934,-2.7317,0.48221,3.0329,0.55852,-0.99732,-1.2268,-1.1757,-0.15545,-0.61479,2.038,0.07394,0.96679,0.074124,-0.79307,-0.56344,-1.5074,3.2115,2.1656,0.25247,-1.3289,-3.2674,-1.5329,0.53329,0.91576,0.12499,0.25262,-0.7932,-0.92066,-0.15545,1.0943,0.38006,0.73727,-1.6604,0.25259,1.63,0.25284,-0.74229,1.4768,1.2472,-0.74215,-0.89511,-0.15564,-1.9155,-0.53812,-0.20647,0.66076,0.27817,-0.97175,-0.18103,0.76277,1.9616,-1.9666,-0.15554,1.2984,2.8799,-0.84414,-2.7063,-0.41063,0.8393,-0.2065,-0.46159,0.12505,-0.33398,0.50759,-1.2014,-0.10439,1.8087,1.324,-0.58924,-0.4107,-0.10453,-0.30851,-0.2575,-1.5584,-0.07883,0.63522,-0.079179,0.60952,2.5482,-0.43582,-2.4509,-0.30856,0.4566,0.63512,0.83929,-1.329,-0.4361,0.48216,0.91584,-1.2268,-0.28291,0.15055,1.579,-0.13006,-0.58921,-0.69118,-0.99715,-0.38503,-0.51265,0.91578,0.12516,1.1454,2.7777,-0.15562,-0.79326,-0.64012,-0.97166,0.12518,-0.99734,-0.35959,-0.35971,-0.079057,0.60975,0.15065,0.20178,-0.15549,0.48208,0.32908,-1.4309,-0.76777,0.55867,4.8695,-0.002503,-1.941,-1.0738,-1.2268,-0.71666,-0.74216,-0.79324,0.3801,1.8341,1.4515,0.074062,-1.584,0.73724,-0.33398,0.48223,1.4516,1.1199,-1.3034,-1.3034,-0.48718,0.20147,-0.53826,0.50759,-0.38504,0.45667,-0.23188,0.86485,-0.58914,-0.33399,1.783,-0.33404,-0.56366,-0.86969,-0.61467,1.4514,1.1709,-0.35958,-0.28303,-0.94609,-0.89527,-0.5637,-0.84425,-1.0228,2.1146,0.074002,1.477,0.68613,-0.25756,-0.30849,-0.9715,-0.027651,1.5535,-0.53829,-0.51277,-0.71679,-0.028066,0.40569,-0.38504,0.83931,-0.35952,0.09954,-0.41059,-0.385,-0.12998,-0.1045,-0.30854,1.0178,0.83922,-0.38508,0.38016,0.27815,-0.38506,0.55869,-0.58916,-0.58918,-0.2321,-0.18108,-0.38503,-0.691,1.375,-0.4106,0.17602,2.4462,0.12504,-1.2524,0.50768,-0.53814,-1.1503,0.43118,1.2728,0.20158,-0.053433,0.12521,-2.1704,0.99229,-0.84431,-0.43626,-0.53796,-0.18101,2.0125,0.25244,2.5481,-0.25759,-1.2779,-0.92069,-0.51263,-0.84411,-0.23179,0.45683,0.48211,-0.18103,-0.20647,-0.28305,-0.94619,-0.84426,1.5533,-0.18119,2.7267,0.91575,-1.4308,-1.6605,-0.51244,-0.23187,-0.5382,1.3239,0.40558,0.17604,-0.28301,-0.20653,-0.74219,0.099534,-0.33411,0.25265,-0.35948,-0.64011,-0.18105,0.60967,0.94126,1.732,-0.079002,-1.6603,0.12519,0.78832,0.17605,-1.1503,-0.84427,0.15062,0.20151,0.58407,1.7574,-1.0737,-1.1503,-1.048,-2.4255,1.6811,3.2879,0.91565,-1.2523,0.27807,-0.10461,0.76269,0.22704,-0.79319,-1.3033,0.63531,1.9616,-0.28302,-1.7624,-0.69102,-0.79318,0.76266,0.35458,0.30353,-1.6605,1.6045,-0.2066,1.6046,-0.43601,-0.30858,-1.3799,-0.30865,1.63,0.9159,-2.1958,-3.7262,0.50763,2.9052,2.4206,0.68605,-0.35975,-0.7933,-1.2524,-0.56348,0.15071,0.45672,0.43113,0.86478,-0.66569,-0.58914,-0.30856,-0.99712,-0.002369,2.9564,0.17595,-0.58919,-0.86978,0.074081,-0.46159,0.83917,0.20156,0.40569,-2.2215,0.58441,0.12513,-0.1556,-0.92092,0.40557,1.0177,2.3187,0.4312,-1.0227,-1.2777,-1.5838,-0.64017,2.3187,-0.64014,-0.20658,0.15049,-0.97177,-0.35933,0.53317,2.1912,0.25259,-0.86979,-0.38513,0.278,-0.35952,-0.25746,-0.86953,-0.079014,0.17606,-0.079118,-0.028103,0.45665,1.0688,2.5993,-1.0993,-0.41055,-0.078977,-2.8592,2.0892,-0.181,-1.3799,-0.61461,0.023035,0.12508,0.17594,0.32907,-0.10457,0.022974,-0.6656,-0.69097,0.20157,1.1964,1.783,0.66068,-0.18097,-0.41061,-0.028023,-1.0738,-0.38505,0.048616,0.35466,-1.2523,-1.0992,-0.3595,1.1708,0.50752,0.17605,0.2015,0.25257,0.60967,-0.027846,-0.28292,0.15065,-0.48705,-0.48718,1.783,1.6045,-0.25763,-1.7371,0.048567,-0.64015,-0.12991,-0.00243,-0.28295,-1.0482,0.89029,0.30354,0.32904,1.1453,-0.53812,0.73722,0.15054,0.27821,-1.8389,0.66078,1.1454,-1.0992,-1.2523,-0.002534,0.25248,0.3545,0.71164,-0.53816,-0.078966,-0.33388,0.023212,-0.33413,0.023041,-0.078977,-0.18097,0.81371,-0.56361,0.1761,0.50766,0.074038,0.81365,-0.13009,-0.86977,0.048678,-1.3288,0.86477,1.2729,-0.61457,-0.436,-1.4563,-0.79323,-0.28322,1.2473,0.8392,-0.25759,0.45667,1.528,0.53321,-1.0227,-1.4308,-0.18097,-1.2268,1.0178,1.0943,0.53311,-0.74216,-2.2981,1.3238,0.73731,0.15065,-0.13012,-0.58923,-0.81877,-0.053372,0.32923,0.17629,-0.33415,0.58404,0.53306,0.45654,-0.6656,0.32915,-1.1503,0.22711,0.94139,-0.84412,-0.30852,1.4514,0.76276,-0.99708,0.35479,-1.6605,-0.58926,0.099399,1.4258,0.96674,-0.61466,-0.5891,-1.7623,-0.74205,1.1198,2.5738,0.50764,-0.10454,-0.1554,-1.1502,0.50766,0.7372,-0.89523,-0.99737,-0.43619,-0.79317,0.91597,1.9873,0.45667,-0.74236,-0.79327,-0.61469,-0.25751,-2.1448,-0.28303,1.1198,1.579,0.55875,0.73717,-0.25762,-0.30862,-0.15548,-0.71652,-0.97163,0.53316,0.20155,-1.0483,0.22704,0.7117,3.39,0.71176,-0.51248,-2.1194,-1.6093,-0.028158,-0.94644,0.40557,-0.33408,0.40572,0.3292,0.3036,1.3493,-0.51255,-1.5073,-0.7676,0.38011,3.441,1.5024,-0.86978,-0.81875,-0.5891,0.17612,-0.66551,-0.99722,-0.71671,-0.46162,1.1708,0.55871,-1.2522,-0.2318,-0.23201,0.27806,0.55866,1.2982,1.7828,0.048585,-0.89513,-0.84418,-0.56363,-0.99722,0.45682,-0.18103,2.1656,-0.30855,-0.81869,-1.3799,0.63522,0.8648,-0.23205,-0.7167,-0.078782,0.58419,-1.5329,0.20149,-0.28311,2.2422,-0.2321,0.38011,-0.07907,-0.15551,-0.12995,-0.6146,0.50769,-1.5075,1.1199,0.20174,0.38017,0.22711,0.12503,-2.4511,-1.0737,0.81375,0.71171,-0.43615,0.43096,0.73717,0.96676,-0.61455,-0.30845,0.20153,0.074033,-0.30855,1.2474,0.43121,-0.18102,-1.1247,-1.1503,-1.3289,1.732,0.68619,0.022937,-0.38514,0.78832,-1.0737,-1.2266,-0.51263,0.20143,0.73708,2.2166,-0.58907,-1.7368,-0.20654,1.9361,2.1146,-0.92081,-1.0482,1.1455,-0.30861,-0.86977,-0.58925,0.25256,-1.635,0.43123,2.1659,1.0943,-0.92079,0.27803,-0.28305,-0.6655,-0.58918,0.3545,1.0687,-1.6857,-0.79291,1.0177,0.94119,-0.079075,0.86478,-0.28304,0.4056,-0.86975,0.35465,-0.20644,0.48226,-1.6093,-1.1502,1.4259,0.099461,-1.1759,1.2984,0.22717,0.023065,0.66074,0.048506,-0.97183,0.50781,-1.0991,-0.43606,-0.3597,0.53309,0.68608,1.8851,1.171,-1.4562,-1.8389,-1.3289,0.58413,0.12504,1.1964,-0.86968,-0.33399,-0.18111,-0.35956,2.3443,0.023023,1.0178,-0.79327,0.15059,-0.84424,-0.92068,0.048585,-0.38503,0.58427,-0.33412,0.32913,0.53315,0.9668,-0.6657,-0.30854,-0.61467,0.48218,-0.81873,0.32916,1.2984,-1.9666,1.528,0.86479,-0.89517,-0.30854,-0.58905,-0.07891,-0.58918,-1.0738,-0.74233,0.83914,1.6044,0.099608,0.55881,-1.1755,-0.79297,-1.0228,1.1196,1.5278,0.91557,0.12493,0.25254,0.12509,-1.1502,-0.51255,-0.38491,-0.46143,0.074106,0.25257,0.55865,-0.41057,-0.92078,-0.079045,0.86471,0.94131,-1.0228,-0.10435,0.55872,-1.0483,0.55864,-0.84434,0.12501,2.5737,2.9819,-1.5328,-2.6549,-1.9663,-0.58935,0.45632,1.732,-0.20642,0.30358,0.35459,1.0433,-0.079033,-0.74209,-1.6603,0.99235,0.30357,0.53325,-0.30854,-0.15534,-1.3542,-1.3288,1.0177,2.0634,-0.48728,0.40563,-1.1248,1.4006,-0.12982,0.074008,-0.71676,-1.737,-0.99728,2.4462,1.3241,0.48221,-0.46166,0.66069,-0.053495,-0.38498,-1.992,-0.002491,-0.33409,-0.71673,-0.48711,0.48223,0.27812,-0.51269,1.5024,0.96689,0.86496,-0.58911,-1.0482,-0.48717,0.17596,-0.5382,0.68611,0.30356,-0.20651,0.60969,-0.71663,0.86489,-0.002374,-1.1503,-1.941,-0.23208,0.99237,2.6248,0.099552,-0.46165,-0.10453,-0.10449,-1.6859,-0.25754,0.048536,1.1708,0.58417,-1.0483,-0.027931,-0.079033,-0.56367,0.68618,-1.0227,-0.002374,0.07413,0.78821,1.0178,-0.61471,0.074033,-0.46147,-0.43604,-0.18102,0.60955,-0.20652,-0.56357,0.43112,0.68617,-0.079057,-0.84408,0.68627,-0.28309,0.78823,0.81383,0.58435,-0.23205,-2.0431,-0.89518,-2.5532,2.1401,0.96671,2.0637,-0.48705,-0.10449,-1.2779,0.048549,0.04858,-1.6859,1.681,0.53317,-1.635,0.17609,1.7576,0.074075,0.30355,-0.4362,-0.38521,-0.30858,0.12538,-0.41027,-0.02809,-0.15564,0.55861,0.22711,0.50774,-0.51263,-0.28315,-0.053555,0.86474,-0.53788,-0.027889,0.7372,-0.23206,0.048438,-0.38517,-0.07907,-2.0429,-0.28285,0.58422,1.3493,0.40549,1.4769,0.30369,-0.81873,-0.8187,-0.5127,-0.9463,-0.97182,-0.86964,1.4006,0.1507,0.71176,0.55869,-0.28312,0.30356,-0.20658,0.30353,-0.41056,0.43125,-0.23186,-0.18102,-0.79324,1.3493,-0.84429,-0.58919,2.0892,0.83933,-0.86969,-0.41053,-0.89522,-1.3544,0.38012,0.76266,-0.79329,-0.18103,0.22718,2.6759,0.20161,-0.18095,-1.941,-0.69116,-0.10447,-0.6401,0.63523,0.55867,0.81367,1.0178,-1.3544,-0.81876,-1.0737,0.38029,0.58424,3.9512,-0.56367,-2.1197,0.81362,0.22697,-2.0685,-0.76745,0.48228,0.25259,0.09957,-0.2321,0.099491,-0.35967,1.0688,0.023029,-0.76757,0.12522,2.0891,-0.28308,-0.2321,0.6862,0.73724,-1.5074,-0.71668,-0.56361,-2.2981,-0.23194,2.8288,0.43115,0.91572,0.78828,-0.41067,-0.61477,-0.38522,-1.0992,-1.0991,-1.1755,-0.027822,0.99222,1.9615,0.35446,0.71163,0.60968,-0.46159,-1.6859,0.048536,0.25266,1.4006,-1.9154,-0.89521,0.68629,0.20158,0.6351,-0.84433,0.50762,0.2783,-0.15538,0.30361,0.60954,-0.2832,-0.33417,0.048543,-0.84408,-0.027956,0.81372,1.2474,-0.30852,0.30371,-2.9613,1.7067,2.0382,2.2166,-1.2779,-1.9412,-1.482,-0.18111,-0.28317,-0.23213,-0.25754,0.38025,0.27834,1.12,0.43113,-0.079045,0.45662,-0.53817,0.048536,0.63523,-0.30854,-0.86973,0.63526,0.3291,-1.4819,0.71173,0.27806,-0.1554,0.35465,-1.482,0.76271,-0.71678,0.55858,0.83928,0.20166,0.35474,-1.3544,-1.1504,0.6862,3.1095,-0.9972,-0.58903,-1.4308,-0.2321,0.58412,0.71161,0.20149,-0.51262,0.43121,-0.58903,0.17623,-0.13005,0.81361,-0.33425,-0.99735,-0.63989,1.8086,0.78822,-0.38508,-1.0738,-0.51265,-0.079057,1.0943,0.66072,-0.86966,-1.4051,0.074155,-0.25765,2.14,-0.13009,0.78821,0.66076,-0.76766,-0.79319,0.38013,-0.99727,-0.79316,-0.18092,-1.9409,2.7014,-0.00251,-0.5127,0.32908,-0.58922,0.17608,0.25257,0.76268,-0.43602,-1.3797,0.50764,0.89023,0.48209,0.02301,-0.4871,0.45666,0.09951,0.12513,-0.8439,-1.5071,-0.41045,-0.002644,0.22683,0.48192,-0.028127,0.53312,1.6299,-1.7115,-0.66556,0.94146,2.0638,-0.56366,-0.18097,-1.2268,-0.30851,-0.6402,-0.002546,0.022956,1.783,0.3291,0.30357,0.53318,0.5587,-0.30847,-0.74216,-0.15553,-0.53812,-0.12994,-0.12996,-0.64014,-0.38515,0.35459,0.074013,1.885,0.35453,-0.35946,-0.97152,0.17625,0.38006,0.6351,-0.51274,-0.027998,-0.38511,-0.20659,-0.078917,0.81385,1.0434,-0.48706,-1.5073,-0.84429,-0.76777,0.60965,1.8851,-0.51262,-1.2013,0.50766,-0.027993,1.9106,1.0688,-1.1502,-0.84416,0.35453,0.60953,0.40565,-0.283,-1.0481,-0.69106,0.22707,-0.41067,0.76256,-0.48717,0.32921,-0.33401,1.2986,0.60968,-0.053537,0.022889,-0.81871,-0.56352,0.6607,0.58413,-0.9462,0.15062,-0.30851,-0.97169,1.0179,-0.15547,1.8594,0.45646,-0.64018,-0.56348,-2.2469,-0.053488,0.40559,0.55861,1.4259,-0.64022,-0.66573,0.09954,1.6046,1.9107,-0.46147,-1.6094,-0.94624,-1.6605,1.4515,0.66069,-0.43612,-0.3851,-0.35959,0.60971,-0.92065,-0.002338,-0.053598,0.66067,1.834,0.66073,-1.2522,-0.92081,0.27815,0.048506,0.48209,-0.13007,0.50763,-0.35956,-0.38504,-0.12998,-0.487,-0.33399,-0.79306,-0.46159,1.0942,1.0687,1.5789,-1.6604,-1.1756,-0.33398,-0.13002,1.7575,1.834,0.25249,-0.10443,-0.15535,-0.76766,-1.2013,-1.2779,1.2984,-0.13005,-0.97177,-0.64018,0.40566,0.53322,-0.18098,1.1453,0.91578,-0.181,-1.9152,-0.86933,-0.30868,1.6043,3.2623,-0.10472,-1.4563,-1.3033,-0.38517,-0.48717,0.63517,-0.28297,-0.15543,-0.20653,0.58427,-0.18092,1.9361,-0.66572,-1.0227,-1.3799,-0.10443,0.91593,0.89031,-0.33406,1.1962,0.022852,-1.1759,-0.51257,1.222,-0.05347,-0.28306,-0.18105,0.099583,-0.33398,2.0382,-0.76754,-1.3543,-0.46171,-0.18116,-0.20653,0.099613,-0.46147,-0.86963,1.0433,2.14,1.5023,1.0177,0.099619,-1.6603,-0.69122,-0.53816,-0.56354,-0.89505,-0.41064,-0.64022,0.40558,0.81373,0.6863,1.0179,0.63524,0.048494
-0.053482,-0.002448,0.023047,0.074051,0.099564,-0.05347,-0.053482,0.023035,-0.002467,-0.12999,0.023023,-0.0535,-0.027974,0.023059,0.023047,-0.027969,-0.002479,-0.002472,0.048549,0.048549,-0.078972,-0.10448,-0.027974,0.074038,-0.07899,0.074057,0.12508,-0.027962,-0.18101,-0.02798,0.12508,-0.078977,-0.07899,0.12507,-0.027969,0.048536,0.023035,-0.027962,-0.002467,-0.027993,-0.07899,-0.053482,0.023023,-0.027956,-0.027969,0.023029,0.048549,-0.027962,-0.1045,0.023023,-0.027956,-0.053476,0.023029,0.12508,0.048561,0.048549,-0.053488,-0.027993,-0.002472,-0.027969,-0.002448,-0.07899,-0.027993,-0.078984,0.048555,0.099577,0.048549,-0.002479,0.023047,-0.05347,-0.053476,-0.027987,-0.053482,0.023047,-0.002472,0.048536,0.12505,-0.15549,-0.20651,0.09957,0.099546,0.023054,-0.002472,-0.10449,-0.078984,0.099552,0.023059,0.048543,0.17607,-0.078984,-0.181,-0.15551,-0.027993,-0.027974,0.023054,0.15058,-0.002461,0.099546,-0.053476,-0.05347,0.023041,-0.13001,-0.053495,-0.002485,0.048543,0.27812,0.1761,-0.053482,-0.079008,-0.18103,0.023023,0.099564,0.048567,0.048561,-0.002472,0.12505,0.15058,-0.05347,-0.1555,-0.20652,-0.027993,-0.07899,0.023059,0.12508,0.048543,-0.053488,0.023047,-0.002448,-0.027969,0.023029,-0.07899,-0.002467,-0.002454,0.048543,-0.15551,0.023035,0.12508,-0.002461,-0.07899,-0.002461,0.048536,0.048549,-0.002448,-0.002467,-0.002485,-0.02798,0.048567,0.023047,-0.10449,-0.079008,-0.002467,-0.053464,-0.078977,0.099546,0.22709,0.023059,-0.25754,-0.13002,0.12507,0.12507,0.023023,0.023023,0.15058,-0.1045,-0.18103,0.12506,0.074057,0.023054,-0.002467,0.12505,-0.002454,-0.078977,-0.1045,-0.053476,0.048567,0.048555,0.074038,-0.027969,-0.23202,-0.1045,-0.10451,0.048531,0.55872,0.38015,-0.027987,-0.079002,-0.41058,-0.12999,-0.07899,0.023029,-0.002467,-0.05347,-0.02798,0.12507,0.32915,-0.002467,0.023035,0.048531,0.074062,-0.027962,-0.027993,-0.0535,-0.027974,0.20159,-0.0535,-0.18102,-0.078972,-0.053482,0.15056,0.099564,-0.1045,-0.07899,0.20158,0.023054,-0.002467,0.15056,-0.002467,-0.027962,-0.28304,0.2781,0.048543,-0.20652,-0.1045,0.074033,-0.10451,0.023041,0.074062,-0.053464,0.22711,-0.053495,-0.053482,-0.15549,-0.078972,0.099564,0.074062,-0.079008,-0.027987,-0.053476,0.12509,0.27812,-0.15553,-0.15551,0.023054,-0.1045,-0.027969,0.074069,0.12507,0.27811,-0.25754,-0.51263,-0.43609,0.22711,0.12507,-0.25753,0.35463,-0.002467,0.099583,-0.027969,-0.18103,-0.28304,0.20159,-0.13,-0.41058,0.048531,0.099564,0.2271,0.023029,0.023047,-0.027969,0.099552,0.099577,0.023041,-0.10451,-0.002472,-0.027962,-0.002467,-0.027974,0.023054,-0.053476,-0.07899,-0.002461,-0.053464,0.023041,0.074044,0.2271,-0.25753,-0.027974,0.074044,-0.027962,-0.078972,-0.078972,0.074033,0.023047,-0.12999,-0.002467,0.2526,-0.002454,-0.1045,-0.02798,0.12507,-0.41059,-0.30858,0.15059,0.2016,0.074062,0.074081,0.35464,-0.18105,-0.15551,-0.002467,-0.18103,-0.30856,-0.12999,0.20159,0.71174,-0.02798,-0.10449,-0.027974,0.074044,-0.1045,0.023054,0.023035,-0.078984,0.023029,0.099564,0.023059,0.074057,-0.053482,0.023029,-0.002485,0.40565,-0.078996,-0.28306,0.074051,-0.002467,-0.1045,-0.002461,-0.027956,0.30363,-0.053495,-0.23204,-0.15551,-0.12999,-0.027974,0.023023,0.074062,0.023059,-0.078996,0.2781,0.40567,-0.56364,-0.20654,0.48219,-0.12999,-0.07899,0.32912,-0.027974,-0.28304,-0.25754,0.023029,0.12507,0.048567,0.074051,-0.027993,0.099559,0.023059,0.12507,0.099559,-0.1045,-0.053476,-0.12998,-0.027974,-0.078996,0.048531,0.27811,0.20161,-0.15551,-0.13001,-0.10451,-0.027974,-0.18101,-0.053476,0.17607,0.048536,0.048549,0.048567,0.023047,-0.027993,0.12505,0.048549,-0.18102,0.12505,0.45667,-0.30855,-0.15551,-0.027993,-0.027974,-0.002467,0.2271,-0.15551,-0.43608,0.099564,0.074044,0.12508,0.074069,0.074038,0.40566,-0.15549,-0.13002,0.023041,0.12507,-0.35957,-0.10452,0.048555,0.099583,0.074044,0.17606,0.023041,-0.05347,-0.05347,-0.053488,-0.10449,-0.02798,0.30363,0.023054,-0.053488,-0.078984,-0.18102,-0.079008,0.023035,-0.002461,0.099564,0.023047,-0.053464,-0.10451,-0.078977,-0.002461,0.27812,0.35466,-0.20655,-0.48711,0.048549,0.023029,-0.05347,-0.13,0.048536,0.25262,0.023041,-0.053482,0.099583,0.023041,-0.002467,0.023017,-0.002467,-0.027962,0.023041,0.17606,-0.07899,-0.053476,-0.18102,0.099546,0.099564,-0.05347,-0.13,-0.027974,0.023054,0.023023,0.099564,0.09957,0.074038,-0.1045,0.023041,-0.1045,0.15056,0.2271,-0.15549,0.12507,-0.30858,-0.02798,0.32913,0.48216,-0.30855,-0.4361,-0.25756,-0.28303,-0.002467,0.15056,0.25262,0.40566,-0.43612,-0.13001,-0.05347,0.048555,0.35462,0.023047,0.074075,0.048536,-0.10451,-0.027974,-0.05347,-0.002472,-0.053495,-0.15551,-0.20651,-0.10448,-0.07899,0.30362,-0.078972,-0.1045,-0.10451,-0.053476,-0.027956,-0.05347,-0.027974,0.023023,-0.15549,0.048555,0.2271,0.20159,-0.13002,-0.35956,0.048536,0.074038,0.68626,-0.07899,-0.33408,-0.30855,-0.1045,0.12505,0.048543,-0.027974,0.2781,-0.38508,0.099577,0.22711,0.074038,0.023041,-0.027956,0.023029,-0.078984,0.048549,-0.15551,0.20158,-0.07899,0.15059,0.023059,-0.20653,-0.13002,-0.078984,0.048549,-0.053464,0.023041,-0.1045,-0.02798,0.099546,0.2526,0.023041,-0.002454,-0.2065,-0.15553,-0.10451,-0.027969,-0.027962,-0.002443,0.023029,0.099564,0.20161,0.3036,-0.07899,-0.05347,-0.15551,-0.0535,0.25261,-0.181,0.099546,-0.1045,-0.053482,0.25263,-0.25755,-0.18102,0.12509,0.32913,-0.002467,-0.12999,-0.1045,-0.15551,-0.12999,-0.002467,-0.002479,0.048549,0.023054,-0.027974,-0.23204,0.074069,0.048543,0.023047,0.023059,-0.027974,0.099552,0.22712,0.30361,-0.15551,-0.13001,-0.13001,-0.12999,0.023023,0.15058,0.12507,-0.13002,-0.05347,-0.053482,-0.027969,-0.027956,0.074044,0.12507,0.023054,0.099546,0.074062,-0.10448,-0.10451,0.023047,-0.053464,0.099564,-0.18102,-0.33405,-0.027974,0.35462,0.099564,-0.12999,-0.13001,-0.002467,0.1251,-0.053482,-0.25754,-0.079008,0.12507,0.09957,-0.12999,-0.002443,-0.027974,0.023023,0.074038,-0.002448,0.074062,0.099552,0.048543,-0.002472,-0.027962,-0.027974,-0.027969,-0.181,-0.078984,-0.002479,0.2271,-0.078977,0.023041,0.048536,-0.07899,-0.10449,-0.027987,-0.002461,-0.28303,-0.18101,0.023035,0.5332,-0.181,0.099564,-0.20653,-0.12999,-0.002454,-0.053495,-0.002467,0.43118,0.023047,-0.35961,-0.33406,-0.078966,0.40566,0.83927,-0.94625,-0.69118,1.8086,-0.51259,1.2474,-0.53812,-0.74219,0.50769,-1.5075,-0.20656,-1.3033,1.8086,1.1963,-1.6859,-0.6146,1.4769,0.074155,0.58423,1.987,2.2166,-2.2982,-1.5839,-1.6604,-0.12988,1.7067,2.7269,0.63512,-1.7881,-5.4354,-0.56368,-3.8798,2.0637,3.237,8.517,-2.1961,-2.3747,1.528,0.58421,-3.6501,-0.53819,-3.3184,-0.4615,-1.0737,-0.30845,-2.5783,4.9205,3.9001,-0.48705,2.1145,-0.56409,-2.1964,-0.81887,-0.33418,2.3188,1.2221,-1.7877,-4.211,-1.8645,-0.41067,5.1245,4.385,1.273,-4.5683,-3.7773,-0.99746,2.9304,-0.028268,1.3747,0.91583,-0.10447,-0.25749,-0.71662,-2.961,-0.12968,2.9054,2.5227,-1.0994,-3.267,1.1712,1.1452,-0.51296,-4.3646,0.30358,2.6253,0.30421,-3.4716,3.2622,3.8998,-1.7376,1.8337,-1.584,-3.2161,-3.4964,0.73708,0.023163,0.32929,-3.3689,3.5177,1.9104,1.1961,-0.69127,6.7825,-0.66562,0.50768,-1.8645,-2.2982,-2.4002,-4.1602,-3.0888,2.3953,4.9717,-1.6096,-2.1961,2.8034,1.63,1.0433,-2.9103,-1.2266,-2.8592,0.81363,2.9308,-0.1301,0.83939,-0.10461,2.3186,-1.1502,-2.1704,-0.48701,1.0689,-0.94631,0.71143,3.5171,-2.1963,4.6655,2.3955,-1.3032,-3.0123,-2.451,-0.66559,-1.0738,-1.8389,-0.1556,1.0177,-0.41059,-0.002412,0.58412,1.1198,1.2985,2.0126,1.9363,-1.5072,-1.4054,-0.86998,-0.079161,-0.56367,-2.2979,-1.7623,-1.1248,1.732,0.20171,1.9359,0.60943,0.22675,3.7725,1.1708,1.171,-2.3999,-3.7514,-7.1693,-2.3236,9.1799,3.7722,0.50724,-0.64048,-0.9719,-0.41054,-1.7624,-4.0835,1.9873,0.94139,1.171,-0.12993,-0.5635,-1.4053,-0.84427,2.6757,-1.9922,1.7575,6.0938,-1.3034,-1.8646,-0.92081,-0.33414,0.3038,-3.7771,-1.8899,-0.56372,-0.61476,1.7319,2.65,0.78808,1.1963,0.99246,-0.078941,0.50772,-0.61452,-1.4052,-1.941,0.91583,-1.2778,0.27818,-0.02792,1.1454,2.65,-1.482,-1.5329,-2.7573,0.68621,-0.71667,1.3495,0.94129,-0.48697,-0.33387,0.45661,-0.84434,-0.84422,0.074111,3.4156,-0.18101,-1.89,0.38002,2.7777,1.0434,-1.6857,-0.99706,-1.3545,0.073953,-0.76768,-2.1704,-0.10417,4.8184,0.15025,0.25238,-0.46167,-0.81868,0.68613,-0.30864,-0.74231,-2.9356,-0.23124,-1.4306,3.9256,2.191,-0.079204,-2.2984,0.099466,-1.635,1.0944,-1.992,0.32917,2.3443,1.4259,0.99254,-0.79315,-1.6095,1.3493,-1.482,-1.5329,-0.38489,-0.64008,2.3186,-0.43606,1.6555,0.2268,1.5021,-2.0429,-0.25729,-0.38505,-0.053495,0.15051,0.73718,-0.63986,-1.1502,-0.76777,-0.61474,1.8085,0.73709,0.38009,3.1351,1.4006,-1.8391,-1.9666,-1.6095,-1.3544,0.40564,1.5025,-2.0431,1.1709,0.55871,-0.48717,-1.0481,-0.33414,-0.20665,2.3186,1.171,1.0947,-1.15,-0.46164,0.048322,1.6041,-0.30856,0.02284,-0.079142,-0.30869,-0.002485,0.60982,-1.6601,0.12537,-0.20638,-0.35959,-0.99728,0.40561,-0.25763,2.1146,0.91582,-0.64001,-2.0939,-0.74225,2.0889,2.7522,-2.4511,1.3494,-0.81883,1.1708,-0.10463,-0.64023,-2.1958,-1.3031,0.58425,4.9971,0.35451,-0.30873,-1.0738,-1.3286,-1.1757,-0.18118,1.5534,-0.79327,-0.18094,-0.51241,-0.10443,1.7064,0.074051,0.48209,-0.74228,1.477,-1.1249,-1.7369,-1.7112,-1.0994,2.038,0.73726,0.86488,-0.12998,-0.46159,0.25255,0.63515,1.2984,0.20161,-2.0684,-1.2522,-2.4256,2.5228,-0.18109,2.6757,0.15052,-1.2014,-2.2216,-1.4563,0.9413,0.12509,-0.43615,-0.385,3.1605,-0.53809,-2.7062,0.89038,4.7674,-0.41072,-0.89535,-0.92083,-0.30871,-0.76757,-1.1756,-1.2012,0.73723,-1.9662,0.023219,1.2472,3.2878,-0.92092,2.8798,-0.48714,-1.0993,0.074142,-1.3031,-1.9409,-0.79319,-0.18117,0.73717,0.38009,-0.53813,2.0893,1.5791,0.55861,-1.2778,-1.3033,-1.584,-0.97177,0.048543,-0.25766,3.1604,1.1198,-1.9408,-2.1958,0.73717,0.55849,-1.4055,0.4313,1.9107,2.1401,0.78814,-0.92079,-2.0686,-1.3287,0.25262,-0.25759,0.45648,-0.35941,-0.61419,-0.41061,0.76254,-0.20657,-0.53804,-0.41066,3.2369,1.6044,0.71172,-0.89529,-0.76776,-0.79321,-2.0685,1.4262,0.71178,-1.6092,0.1505,-1.7882,0.17602,2.8033,0.78821,-0.53824,-1.0738,-1.2013,0.32916,-0.4615,-0.078879,-1.1503,0.6862,0.58416,1.9106,0.68621,-1.0737,-1.9408,-1.0483,1.885,-0.43619,0.81375,0.30366,-0.13011,1.6044,-0.89515,-1.7113,-0.48711,0.12502,0.25256,0.48219,0.38013,-0.23202,-0.76765,0.66077,0.76272,-0.002394,0.07394,-0.18114,-1.3799,1.3751,0.43124,-0.41044,-0.97174,-3.242,0.53309,3.2879,1.1708,-1.0738,-1.1248,-0.86974,-1.0482,-0.86958,0.99232,1.0944,-0.33407,-0.23221,1.0435,1.6302,0.4311,-0.3087,-0.56376,-0.69118,-1.0993,-0.1298,1.3751,1.4259,-0.23219,-0.61477,-0.35957,-0.53813,-0.20662,-0.53807,-0.97158,0.32922,0.074033,1.7065,0.60968,1.4003,0.63501,-0.66561,-1.3027,-1.4051,-1.8901,-0.002625,1.4768,1.6043,0.73702,0.78815,0.22724,-1.3032,-0.078972,-0.71666,-1.0483,-0.99727,1.9616,0.48221,0.68626,-0.8697,0.20162,-0.69108,-0.25747,-0.92081,2.14,0.66062,-0.66573,0.91578,0.76282,0.68633,-0.94628,-1.6348,-1.4307,0.15053,0.30355,0.20151,-1.6095,0.71168,2.9817,1.8596,-0.25754,-1.3798,-1.3287,-1.2268,-1.4818,0.099588,-0.58892,1.6301,1.9615,3.3644,-1.278,-0.76799,-1.431,-1.5074,-0.58907,-0.15543,0.40569,-0.002436,-0.53812,0.7883,0.43122,1.2218,0.91591,-0.20638,0.53326,-1.0484,-1.4819,0.3544,1.6808,-0.28313,-0.99682,-1.5582,0.55864,0.32908,0.37999,0.37999,0.63511,-0.58918,-1.0993,1.2985,0.96702,-1.2523,-0.99726,2.3698,0.32917,0.22704,-1.0483,-1.2269,-0.86978,-0.84415,-0.4361,1.3749,-0.71679,0.099552,1.6302,2.0892,-0.9207,0.94125,-0.41061,-0.13019,-0.4617,0.5842,-0.64007,-1.1502,0.58429,-0.53779,-0.94617,1.4768,-0.46176,0.35458,-1.3544,0.99224,-0.23205,-0.35966,0.04858,1.3495,0.60971,-1.1502,0.25274,-0.38516,-0.94604,-0.35946,1.0177,-0.002625,0.96666,0.38019,-0.56353,-0.20658,-0.92073,0.32886,0.5843,0.60981,0.023103,0.48191,-0.48713,-0.35957,-0.12994,-0.30865,-2.1704,0.48231,0.38029,0.27824,0.27825,1.1709,1.6553,0.55856,-2.6296,-1.1503,-1.1249,0.022821,0.50752,-0.13005,0.53319,1.3494,-0.4616,1.579,0.27825,-0.053286,-1.3542,-0.41061,0.40575,-0.56361,0.53305,0.022699,0.35472,-0.66553,-0.28305,-0.33401,-0.74226,0.55857,1.2984,-1.4818,-0.89512,1.8596,1.1197,-0.66558,-1.1502,2.7778,-0.81879,-1.2014,-1.4053,-0.6655,1.7829,0.55848,0.27812,-0.53787,-1.7367,-1.5583,1.1197,-0.028163,0.53301,1.0942,3.6195,-1.3799,-1.8387,-2.0173,-1.1503,0.76267,2.0125,0.99226,-0.28308,-0.4106,0.63531,1.6046,-0.053397,-1.7625,0.22707,0.6607,1.5279,-0.69141,-1.4308,-1.558,-0.76761,-1.2012,-0.8697,1.3492,1.7573,1.6298,1.5534,-0.28297,-0.18095,-0.64012,0.25278,-1.6603,2.2422,-0.33401,-0.84415,-1.3543,-0.13001,0.30358,-0.51269,0.25251,-0.92077,-1.5329,1.2475,1.171,0.32903,0.1505,-0.28295,-0.5126,0.074069,-1.2778,2.4463,1.4768,2.1657,-0.35964,-1.9411,-0.8698,-1.4055,-1.2012,-2.1449,0.76317,0.83936,0.99218,0.737,-0.13015,0.86469,-0.078947,0.43118,0.78825,1.324,-1.0481,-1.0227,-0.58924,-1.5585,-0.76777,-0.41063,2.0636,0.94133,-0.94619,0.07416,0.9923,-0.079173,0.048433,-1.7113,-1.0226,3.1604,1.987,0.073739,-0.99729,-0.793,1.3752,-0.51267,-0.66591,-1.533,-1.2012,0.94129,0.86471,0.22702,0.48209,0.022998,-0.002443,-0.15538,-0.66541,-0.18103,1.0688,0.27807,-0.20649,0.89017,0.43102,-1.2011,-1.9154,2.4207,-0.079118,-0.58924,-0.079081,0.023029,-0.43609,4.4868,-0.6658,-1.1758,-2.0683,-1.5839,-0.9206,0.38025,0.66067,0.45659,1.681,0.89024,0.50769,0.023084,-0.18099,-1.2269,-0.89525,-0.61461,0.38011,0.43113,1.7576,-0.3851,0.83932,-0.76755,-0.3341,-0.078996,-0.99709,-1.6604,-1.6606,1.8084,3.2114,1.2728,0.45659,-1.5837,-3.2669,-0.81874,0.91554,1.7318,0.32894,1.2728,-0.002521,0.66079,-0.56353,-2.298,-1.6603,2.6759,1.3239,0.91578,-0.58918,-1.9154,-1.5838,-0.94627,-0.48725,0.099473,0.81362,4.1297,-0.84412,3.4411,-1.3798,-2.4765,-0.5893,-0.25777,-0.97189,0.099619,0.048518,-1.0228,0.45674,1.6811,1.375,0.40569,-0.12983,-0.38506,-0.61469,-0.66576,-0.89513,0.074106,0.55853,0.35464,0.25256,-0.35956,-0.64005,0.6862,0.53306,-0.2321,-0.30859,-0.51253,0.58436,-0.9463,0.86474,-0.25762,1.426,0.68644,-0.41058,-1.2778,-0.84418,-2.2726,0.43115,-0.5382,1.3748,1.3748,0.99222,0.81376,-0.1809,-1.3287,-0.99727,-0.3596,0.38028,-2.094,0.53323,-0.64018,0.63519,1.0177,1.0177,1.1709,0.074081,-1.1247,-0.25745,-0.86976,0.073946,0.83933,0.63524,-0.99732,-0.69115,-0.89524,0.81375,4.0023,-0.538,-2.2981,-1.5585,-1.4564,0.58413,-0.13011,1.0688,0.76266,0.32915,-0.15536,-0.8442,-0.46157,-0.33399,0.60962,1.579,-0.28294,-0.48703,-1.7626,4.2827,-0.13018,-1.4308,-2.1449,-1.4055,1.1453,0.63527,1.0944,-0.35947,0.63527,-0.74222,-0.86973,-0.3595,-0.23191,0.023114,0.99224,0.30349,1.0433,-0.35959,0.17616,0.3291,0.53305,0.91565,-0.25741,-1.5581,-2.1959,-1.1248,0.25262,1.9359,2.8031,-0.71679,-0.46133,-0.99721,-0.79322,-0.48722,0.20152,1.0178,0.76283,-0.61444,-2.0173,0.25267,-0.46169,0.91566,1.7829,1.2983,-1.9666,-0.30838,-0.61445,0.73736,-1.2013,-0.46178,-0.18122,-0.25769,1.5279,0.48228,-0.81847,-0.027822,1.5025,1.7065,-1.2524,-1.2524,-1.7623,-0.99706,2.4461,-0.33417,-0.33394,-0.66547,-0.41053,-0.76786,0.43103,1.1708,3.5684,0.5075,-0.61464,-1.5327,-2.6039,-0.84401,-0.027895,2.1911,0.96658,-1.1505,-0.97191,2.2678,-0.38477,-1.1248,-0.86974,0.91564,0.20163,-1.2266,-0.86972,-0.38525,-0.99741,1.6044,3.1859,1.5789,-0.69111,-2.5529,1.1457,-2.5531,-0.64024,0.55847,-0.20678,2.8799,-0.76749,-1.9405,-1.3795,-0.1557,0.32885,1.9358,0.58402,0.25254,1.63,-0.5126,0.22703,-0.86951,-2.2212,-0.84406,0.35476,1.7064,0.20141,-0.23218,-1.6351,1.9869,0.6352,-1.813,-2.068,0.27819,0.22702,0.15031,0.55839,-0.86975,-1.4564,0.96665,1.3492,0.78811,1.681,0.50783,0.38058,-1.2777,-0.84419,-0.6912,-0.69122,-0.7167,0.43108,0.38016,-0.89514,0.43121,1.1199,1.5535,-0.002601,0.73712,0.022998,-1.4054,-2.2726,-1.4053,4.1298,1.8085,3.3645,-1.6349,-2.1196,-1.6604,-1.1758,0.73708,-0.18111,0.78829,-0.63997,-0.33396,0.099515,-0.00254,0.60964,2.0126,1.5534,0.35467,-0.81857,-1.2522,-1.4818,0.073965,-0.48709,-1.737,1.7063,4.4102,-0.028109,-0.51271,-0.97172,-1.7623,-2.6041,0.60978,0.63528,2.3698,0.38004,-0.15571,-0.81875,-0.58917,1.2729,-0.53766,0.20178,1.3239,-0.18125,-0.33431,-0.48726,-0.02809,-0.1555,-0.30855,-1.6859,1.5026,1.0689,0.86496,0.20193,-1.3033,-0.13019,0.022845,-0.002637,0.38001,0.94123,-0.56353,-1.4051,0.71173,-0.35962,-0.00254,0.27826,0.25281,0.86478,0.3035,-0.48724,-0.10475,-0.28305,-0.8697,0.27817,-1.8135,1.6046,2.7524,0.32918,-1.7626,0.78828,-0.69115,-0.18107,-1.1247,-1.2523,0.78823,-0.69121,0.76264,1.1964,0.48229,-0.97175,-0.079021,0.20149,1.9616,-0.1044,-1.5074,-3.063,0.43103,1.0942,0.55855,0.4055,0.43111,1.4515,-0.53806,-1.0736,-0.58914,0.32908,-0.18095,-2.0939,0.27822,1.2474,-0.28315,0.91571,-0.25764,1.5279,-0.9973,0.30366,-0.002394,-0.81873,0.17604,0.12509,-0.38503,-0.86962,-0.76765,1.3749,-0.33407,0.048487,0.60968,0.81379,-0.23202,-0.64014,-1.0994,0.40565,2.7013,-0.56342,-0.81872,-0.8188,1.2217,-0.15567,-1.2779,-0.56343,-1.3287,2.5738,2.9818,-0.13004,-0.61452,-1.1248,-0.58929,-0.30871,-1.3033,0.78828,0.30376,-2.043,4.0788,1.3749,-0.23218,-0.94642,-0.002565,0.86477,-0.33406,-0.41045,-0.86972,-1.6858,-0.76747,-0.18105,0.7626,2.1145,1.681,0.48225,-0.8698,0.099637,1.0687,-1.6094,0.4061,-1.89,-0.61489,0.55844,1.1707,0.83922,-0.46155,-0.002454,0.53329,0.048616,-0.18087,-1.5839,-0.38506,0.99234,1.6301,-1.6091,-0.94589,-1.5587,0.7369,2.446,2.2164,-0.64033,-0.74226,-1.4306,-0.81852,-0.84401,-0.20639,0.22697,0.45654,2.9819,-0.30852,0.12514,1.681,-1.4054,-0.71672,-0.20655,0.60973,0.76283,-2.0685,-1.1758,0.048592,0.22708,-0.33416,0.048512,0.43112,0.73715,0.073965,0.71163,-0.86952,-1.1755,0.15087,1.936,0.35445,0.35429,-0.94647,2.2421,0.20169,-2.0429,-1.3541,-1.4308,-1.0228,0.55859,2.1911,1.3494,0.38018,-1.4308,-1.6348,-1.3798,0.50757,2.6501,1.4511,-1.3031,-3.9298,-1.1248,2.5735,0.88996,1.0176,-0.48729,2.038,0.66075,0.76282,-0.43595,-1.6859,-0.51255,-0.1555,-1.1502,0.17603,-0.81854,-1.5838,2.5992,1.4258,2.089,1.0178,-1.8899,-1.5329,-0.43623,-0.76775,-0.53809,0.099552,-0.5126,0.17625,1.4513,0.5841,-0.079014,1.6811,-0.58913,-0.66561,-0.41055,-0.53816,0.63534,-0.81859,0.27803,0.099485,-0.18098,-0.92065,0.7116,0.38011,0.022968,-0.18097,0.17627,0.38009,0.073953,-0.35959,1.1197,0.38019,-1.9918,-1.0483,1.0944,2.0126,1.0432,0.25249,-1.3289,-1.3798,-0.43606,-0.58912,-1.3287,-0.33401,1.3239,0.76274,0.048512,0.25256,-0.43604,0.32928,-0.002454,-0.30866,0.91568,1.1708,1.6554,0.20165,-2.1195,-1.8644,1.4515,-0.81866,-0.56362,0.66073,-0.79325,-1.5328,-0.6147,1.2218,-0.25757,1.1198,0.73721,0.20157,0.099608,-1.3031,-0.53788,2.5226,-0.079002,0.12504,-0.028103,0.63512,-1.3799,-0.23205,0.55867,-0.18102,-0.63996,-1.6602,-0.23198,0.73728,0.66062,0.048463,0.86471,0.66064,0.20152,-0.61455,-0.6146,-0.76764,0.63529,0.94131,0.81375,-0.86969,-0.58929,-0.69131,-0.81881,1.069,-0.38495,0.71172,2.0892,-0.64021,0.58417,0.91575,0.022968,-1.0738,-1.4308,-0.92057,0.38023,0.60966,0.48206,0.5075,1.2983,0.22689,-0.97148,-1.8132,-1.4816,0.68631,0.7114,1.094,1.2981,-0.23215,1.375,-0.30839,-1.2522,-0.56368,-0.20658,0.71181,-1.4307,2.1658,-0.94609,-1.2267,-0.81882,-1.227,1.5023,2.5737,0.5842,-0.38508,-0.48717,-1.4309,-3.2929,1.426,3.9768,1.4005,-0.46174,-0.46164,-2.3747,-0.053317,0.27822,0.48202,-0.053665,-0.38511,-0.86966,-0.74208,0.099632,0.63511,0.6351,1.8084,-0.94619,-0.15537,0.55876,-0.51249,-0.30861,-0.43618,-0.4361,-0.64014,-0.027993,1.2476,-0.6655,0.60988,-0.84426,0.45645,0.3034,0.3545,-0.48717,-0.7167,1.2729,-1.2014,2.0637,0.43133,0.22742,1.9108,-1.4565,-0.74231,-1.1759,-1.5075,-0.20669,1.0177,0.07402,-0.33393,-0.027882,0.50774,0.38017,1.0434,-0.38514,-0.69122,1.0943,3.2114,-0.43616,-1.7878,-1.4308,-0.43609,0.32914,-0.25765,0.48204,0.8136,-1.2012,-1.3796,-0.51264,0.89019,2.0381,0.30363,-1.5074,1.2219,-0.56364,-0.3341,1.6554,-0.8696,0.27838,-1.5328,-0.079063,-0.23222,0.20141,-0.48716,-0.23208,-0.002436,-0.15543,0.074038,0.3291,0.35464,-0.002405,1.7065,-1.2521,-0.66539,-0.33418,-0.38528,0.3545,2.3697,1.477,-1.9664,-2.8849,2.089,-0.28314,0.45661,-1.8642,-0.79308,-0.25762,0.63504,0.60959,0.66068,-0.027993,0.25256,-0.76771,2.2424,-0.84384,1.5281,1.2727,-0.13012,-1.0483,-1.9155,-0.84428,-0.3597,1.0177,0.81375,-0.41049,-0.99716,-0.00251,-0.25746,1.3239,0.45659,0.38005,-0.41055,-0.07891,1.2729,-1.1502,1.0943,-1.4564,-0.84417,1.2222,0.38028,1.3748,-0.35978,-0.84441,-1.2524,-0.89525,-2.1706,2.3953,1.324,-0.028042,0.30364,-0.20644,-0.3338,-2.2978,0.71173,-0.56378,2.0381,1.6299,-0.1045,-0.58917,-1.0993,-1.6606,-0.028018,2.0381,1.732,-1.0737,-1.1248,1.783,-1.6094,-1.8134,-0.97175,0.71187,2.3952,1.987,0.022968,-1.3288,-1.9408,-0.81871,-0.35973,0.1759,0.66057,0.68616,-0.64015,0.12523,2.2678,1.9871,-0.002552,-0.48719,-0.53815,-1.2268,-1.2522,-0.48708,-0.20652,-0.079008,-1.2011,-0.078886,1.1963,-0.43614,1.732,2.7012,-0.46174,-0.58904,-1.3798,-0.76786,-2.9357,1.9874,-0.43614,2.2677,2.5737,0.96671,-0.81871,-3.293,-0.28292,-1.8388,-1.1247,1.4004,1.2219,-0.028011,0.099515,0.48216,-0.18094,0.15057,0.32902,-0.51263,-0.1044,0.81375,0.50763,0.048598,0.43112,-1.6603,-0.38514,0.43108,-0.46159,1.375,1.1708,-0.4107,-0.86966,-2.604,0.71184,0.584,1.4004,0.32912,-0.76771,-1.0227,-0.10446,2.0126,-1.0737,1.2729,0.073946,-2.0942,0.94128,0.89035,0.6608,-0.86967,1.1454,-0.13009,-1.2269,-0.41057,-1.6094,-0.078928,1.1965,2.2676,1.4512,-0.66574,-0.61452,-0.79315,-0.46166,0.94124,-0.61466,0.27804,0.76279,-0.6655,0.12507,-0.86966
-0.43601,-0.20648,-0.078972,0.09957,0.074038,0.12505,0.09954,0.15053,0.099559,0.048525,0.074044,-0.078977,-0.053495,-0.053458,-0.05347,-0.1045,0.048573,-0.053464,-0.053482,-0.078972,-0.027969,-0.079008,-0.027987,-0.053482,0.023023,0.074051,0.074044,-0.002485,0.023047,0.048549,0.023029,0.074051,-0.027962,-0.027974,0.074038,-0.027969,-0.078977,-0.13,-0.002467,-0.027956,-0.027974,-0.02798,-0.002454,-0.053476,-0.027993,0.048561,-0.027974,-0.027993,0.074057,0.023035,-0.079008,0.09957,0.048567,0.074051,-0.002479,-0.078996,-0.10449,-0.027962,0.023023,0.074062,0.048561,-0.1045,0.023023,-0.027969,-0.002454,0.023023,0.048549,-0.078972,-0.053476,0.023041,-0.10449,-0.002479,0.023035,0.074057,0.023029,-0.10448,-0.053482,0.074057,0.023065,0.048549,0.074051,0.12507,0.048531,-0.078972,-0.0535,-0.027974,-0.027974,0.048531,-0.002467,0.023059,0.074044,-0.078996,-0.10447,0.074062,0.048536,-0.002454,-0.053476,-0.079002,-0.027974,-0.02798,0.074038,0.023041,0.023035,-0.079002,-0.05347,0.023041,0.023047,-0.05347,-0.027974,0.074057,0.12508,0.023041,0.074038,-0.027956,0.074038,0.023035,-0.027956,-0.1045,0.023023,-0.002454,-0.10448,-0.027969,0.048531,-0.002454,-0.07899,0.023023,-0.002448,-0.07899,0.12506,-0.027969,0.048536,0.12505,-0.002448,-0.1045,-0.027969,-0.12999,0.023023,-0.027969,-0.002454,-0.13001,-0.002485,-0.002472,0.023054,0.099559,0.09957,-0.027956,-0.027987,0.023047,-0.053482,-0.002479,-0.027962,-0.078977,-0.027993,0.023035,-0.027962,-0.027962,0.048531,0.048549,-0.027974,-0.28298,0.09957,0.32906,-0.027974,-0.15548,-0.10447,0.074051,-0.078984,-0.027956,-0.002472,-0.079008,0.023035,0.023054,0.048536,0.023023,-0.002461,0.023054,-0.002467,0.048549,0.22707,-0.15549,-0.41052,0.04858,0.22707,0.074033,-0.078984,-0.13,-0.1045,0.12505,0.048549,0.15058,-0.027987,-0.1045,-0.002448,0.023059,-0.027974,-0.10451,-0.053495,0.12507,-0.002448,0.074051,0.099552,-0.027974,-0.05347,-0.053476,-0.002485,0.15057,0.048567,-0.02798,0.023035,-0.002485,-0.002467,-0.027956,-0.053464,-0.027969,0.099552,0.048549,-0.002454,-0.10448,-0.053482,-0.10451,-0.053482,0.074062,0.048561,-0.027969,0.023023,0.023035,-0.027962,0.023035,-0.002491,0.023047,-0.027962,-0.002467,0.048531,0.023054,0.074057,-0.002485,-0.002461,-0.078972,-0.002472,0.023023,-0.027969,0.023054,0.12507,0.074044,-0.07899,0.023041,-0.12999,-0.053476,0.074044,0.074051,-0.078972,-0.07899,-0.002461,0.023054,-0.002467,-0.002461,-0.10449,-0.10449,-0.027987,0.15059,0.048561,-0.053482,0.074051,0.27812,-0.18101,-0.18102,-0.13002,-0.07899,-0.002448,-0.027987,0.12505,0.15058,0.099564,-0.027974,0.023054,0.048543,-0.002479,0.023041,-0.12999,-0.13001,0.048531,0.12506,0.12509,-0.002467,-0.053482,0.048536,-0.002454,-0.1045,0.074038,-0.053476,-0.053464,-0.053476,-0.078996,0.048531,0.074051,0.048567,-0.027956,-0.07899,-0.002472,0.15059,-0.053464,-0.02798,0.099552,0.12508,-0.25753,-0.15551,-0.002491,-0.027969,0.023059,0.17609,0.099546,-0.07899,-0.078977,-0.027974,-0.002485,-0.027969,-0.027956,0.023041,0.023029,-0.053482,-0.12999,0.099559,-0.002485,-0.002479,0.048555,-0.053464,-0.053482,0.023017,0.15056,0.15057,-0.05347,-0.053476,-0.10452,-0.18102,-0.002461,0.074057,0.023029,0.099546,0.074057,-0.053464,-0.078984,0.09954,0.023035,0.048555,-0.002467,0.048536,-0.13,0.023054,-0.002467,-0.053495,0.048549,0.15059,0.048531,0.023035,0.023041,-0.078972,-0.053482,0.048531,-0.027974,-0.002454,-0.13001,-0.053495,0.15057,0.023059,0.074033,0.023041,0.023041,-0.10448,-0.15551,0.17607,0.12507,0.048555,0.074038,-0.13001,-0.053464,-0.1045,0.099546,0.12507,-0.15549,-0.078984,0.048543,-0.078972,0.048549,0.048549,0.023041,0.20158,-0.002461,-0.027974,-0.25756,0.074062,-0.05347,-0.1045,0.048536,0.023047,0.023059,-0.078972,-0.02798,-0.027969,-0.10448,-0.053488,0.074044,0.20158,0.099559,-0.1045,-0.002467,-0.12999,-0.02798,0.2781,0.048549,-0.15549,-0.002479,0.099552,-0.078972,-0.027969,0.15056,-0.10449,0.048567,0.023041,-0.002467,-0.079008,-0.027974,0.023059,0.09957,-0.002479,0.074051,-0.07899,-0.053495,-0.002461,-0.027962,-0.05347,-0.027993,-0.027969,-0.027956,0.023041,-0.027993,-0.027969,0.099577,0.09957,0.15057,-0.181,-0.02798,0.023023,-0.078984,0.074062,0.12506,-0.18102,-0.10449,0.023029,0.074051,0.15058,0.099546,-0.027956,-0.053488,0.023029,0.023047,0.074069,0.074057,0.099552,-0.0535,-0.07899,-0.053464,-0.05347,-0.02798,-0.002472,0.048555,-0.078972,-0.027969,0.099546,-0.078977,-0.002467,0.074038,0.15059,-0.078972,-0.1045,-0.027987,0.048543,0.1761,0.099552,0.023029,-0.23202,-0.1045,0.048531,-0.027956,0.023041,-0.027969,0.15057,-0.002454,-0.13001,0.048531,0.12507,-0.002454,-0.027993,0.023047,-0.05347,-0.078984,0.023029,-0.002472,0.048549,-0.078972,-0.002454,-0.1045,-0.25754,0.023029,0.17609,0.048549,0.15059,-0.1045,-0.13002,0.17607,0.09957,0.099564,-0.078966,0.023023,-0.002479,0.074051,0.048561,-0.053476,-0.078984,0.074038,-0.027993,-0.027974,0.023065,0.048549,0.023023,-0.002479,-0.05347,-0.002467,0.048531,0.048555,0.074075,-0.027956,-0.027974,0.023023,0.074062,0.048561,0.074051,-0.18102,-0.027993,0.023023,-0.002461,-0.10448,-0.10448,0.20161,-0.078984,-0.053488,-0.1045,-0.002448,-0.002454,0.15058,0.048525,-0.10449,0.023035,-0.10448,-0.053488,-0.002485,0.048536,0.074057,0.023054,-0.05347,-0.053488,-0.1045,0.099546,0.12507,-0.002467,0.048536,-0.027962,0.048561,-0.053482,-0.002485,-0.002467,-0.002454,-0.002467,0.048536,0.023029,-0.027969,-0.05347,-0.002454,-0.002467,-0.13001,-0.027969,-0.05347,0.048531,0.023041,0.12509,0.023041,0.023029,-0.10449,-0.027974,0.048561,0.074062,0.023035,-0.027962,-0.053488,0.023023,-0.002472,-0.053476,0.12507,0.023059,-0.078972,-0.002485,0.12505,0.074062,-0.002472,-0.10451,-0.053482,-0.002454,-0.002461,0.048531,0.048531,0.048549,-0.027962,-0.15551,0.023023,0.099552,0.35464,-0.027956,-0.15551,-0.15553,-0.078996,0.074062,-0.002454,-0.078977,0.048531,0.074051,-0.002454,-0.1045,-0.027993,-0.053476,0.099583,0.099564,-0.15553,-0.15551,0.099577,0.30361,0.32915,-0.181,-0.43609,-0.10452,-0.078984,-0.078972,-0.18102,-0.0535,0.38015,-0.35956,-0.38508,0.96681,0.20158,-0.20652,-0.41058,1.4515,-0.43609,-0.58912,0.38014,-1.1758,-0.76771,1.7576,0.32912,1.9107,-0.99726,0.30361,-1.8645,-2.1705,-0.99727,-2.6298,3.3134,-0.28305,3.135,1.579,1.0433,2.4462,1.4515,-3.1143,-1.3543,-2.7317,-2.6807,-2.3748,0.35437,1.9104,4.1298,1.0435,2.3188,-2.4001,4.7166,0.074411,-0.6655,-5.6909,-5.8694,4.793,0.20184,2.5484,-4.7471,0.91547,4.4865,6.6292,-2.1197,-5.2058,-2.8845,-5.6136,1.7577,-1.3547,3.1602,0.94125,1.6049,5.3289,1.8594,-3.5993,-6.6854,1.5789,5.6352,-2.0933,-0.97215,1.5275,-4.9255,-4.5938,4.2827,3.3897,-0.05388,3.1093,-0.48718,-1.354,-0.38484,-1.3286,-2.3487,0.71206,-2.5275,0.20184,-1.2522,-0.28315,4.41,0.58395,-2.8851,6.5527,4.7671,-2.783,-5.3847,5.8132,2.2679,-3.3948,-1.8897,-3.9813,-1.0482,-0.079033,0.17602,1.0943,0.4311,2.7778,2.2167,-1.5329,0.048555,4.6144,0.81379,1.477,-1.635,-2.5277,-2.7828,-0.38514,-2.0431,-0.28311,-0.97176,-4.2622,4.2063,2.8032,1.4515,-0.20641,-2.425,-2.145,-2.1452,0.63503,4.8438,1.8592,-1.0996,-1.7372,1.579,0.38006,-1.2777,-3.1395,1.5793,1.2219,1.0945,-3.8025,-2.4001,1.1961,1.6552,0.8645,0.71148,-0.61484,1.2984,0.3802,0.35473,-1.7879,1.069,1.8852,-2.6297,1.7321,-1.3033,-2.1961,1.2473,-2.0431,0.76278,3.8491,-3.7007,-1.278,3.7724,4.3336,-0.38508,1.1709,-1.3288,-2.145,-2.1961,-1.4308,-0.53828,1.0432,-0.2321,0.73731,-1.9154,6.9101,-0.283,-0.58907,1.0688,-1.1758,-1.2013,-0.71673,-1.2524,-1.4054,1.8087,2.5993,2.5483,-2.0686,-2.5277,0.2271,2.0636,-3.9562,2.2677,-0.10457,0.048494,-0.99681,-2.3232,-0.64037,1.2728,2.9053,-1.0227,-0.48706,1.8594,-0.10459,0.71163,0.60962,-1.635,-1.5073,-1.8133,-2.3488,0.35505,0.35469,2.14,0.5074,3.5428,0.048347,0.25246,-0.92077,-2.3236,-0.6397,-2.8335,2.4208,0.22704,0.60957,0.43105,1.783,-0.3596,-0.89527,-1.2779,-0.89516,-1.6093,2.1147,1.63,1.4259,-1.0993,0.66072,-2.1707,-1.788,1.375,-1.3799,-1.431,3.5939,2.2422,-1.0226,-0.20655,-0.53807,-0.97175,-2.2217,4.2317,0.074026,1.7578,-1.1244,-2.5022,-2.2473,0.073922,5.7111,-3.2165,-0.28298,0.50783,0.12513,-1.5586,-0.51265,0.1506,1.0944,1.0434,-1.8135,-0.38506,1.0178,1.9361,0.22707,-1.0736,-1.7113,-1.3799,1.4258,1.5789,-0.078977,0.86485,-1.0993,-0.28306,0.81357,-0.86964,-1.1504,0.20156,3.6196,1.6045,-1.5075,-0.69106,1.7066,-1.2266,-2.4256,-0.56378,-0.58924,-0.64029,-0.51273,2.3697,3.3647,0.66077,-2.0176,-1.4053,-0.002443,0.227,0.07394,-0.028042,2.7013,-2.1195,4.1809,0.20164,-1.6605,-2.7061,-1.0227,-0.20667,-0.81881,1.4004,2.9819,3.645,-1.2268,-2.655,-1.8643,-0.69114,-0.2065,-0.10451,2.2165,0.48192,0.91565,-0.25753,2.7015,0.96688,-0.20654,-1.8389,-2.553,-1.4054,-0.64023,-1.8645,3.2115,2.8543,0.89022,-0.3086,-1.9919,0.35467,-0.46154,-1.9156,0.86476,-0.35966,1.579,-0.69116,-1.5074,1.2729,1.8086,-0.74217,-0.43597,0.43125,-0.61469,-0.53815,0.023005,-0.28306,-0.20655,-0.3341,-0.2321,0.9924,2.0893,-1.1502,-1.9411,1.5535,-1.2523,0.8648,-2.2218,1.2216,3.0839,0.89048,-1.1503,0.27812,-1.0228,-0.56366,-2.5787,-3.2163,2.1147,4.4104,1.7064,-1.0994,-1.7881,-2.7828,1.0692,1.579,0.63522,1.4514,-0.92088,-0.69135,-0.8443,-0.48718,-0.74223,1.8851,0.66075,-1.0991,0.96698,0.60969,0.17604,1.1453,-0.33406,-0.46159,-1.4309,-0.20667,-0.53805,0.35468,-1.788,0.55877,1.936,-0.35966,0.73715,0.40563,-1.2268,-0.2321,1.4515,-1.1247,-2.7062,0.38038,2.1401,0.91574,-1.9155,-1.2524,2.1401,0.30355,0.83916,0.12497,-3.1909,2.829,-0.63987,-1.3287,-0.74225,0.38001,-0.94625,0.048402,0.83921,3.6959,0.32927,-0.79318,-0.86971,-1.9665,0.50772,0.60975,-0.51262,-1.3544,1.4514,3.237,0.15049,-1.6859,-0.33387,0.55896,-0.13001,-0.61479,-1.7117,0.099418,2.0127,0.4311,-0.002381,-1.3032,-1.5838,-0.56377,1.1963,-0.41063,-0.33408,2.5228,0.023047,-0.38518,-0.51248,-0.79302,0.20159,0.22705,0.8903,1.2984,-0.20658,1.2473,-1.7371,-0.74232,-1.3034,-1.4562,-1.099,-0.99723,-0.64023,2.5483,1.0433,1.3239,1.8851,-0.56362,-1.3034,0.63528,-0.28308,-0.38512,-3.9816,2.9311,0.60972,0.20157,0.55856,1.5279,-2.1961,-1.5839,-0.74226,-0.56362,-0.41052,-0.48717,0.71173,0.40563,1.2986,1.1202,0.86486,-0.94622,-0.33426,-0.35981,2.5992,-0.20661,0.71173,-0.84409,-0.66561,0.58431,-0.86972,-0.8698,-0.25748,-0.43605,0.43105,-0.38522,-1.0738,0.2019,0.83942,1.5789,0.099448,1.0687,-0.20661,-0.23193,-1.3033,-0.283,0.099412,1.1708,-0.23205,-1.6095,1.9871,2.9054,0.43119,-1.8134,0.22713,-0.97176,-1.4562,-1.1247,-0.0535,1.0433,0.25254,-0.58921,0.074075,1.1199,2.5484,-0.46162,-0.81868,-0.97178,-0.76769,0.12504,-2.4001,2.4974,2.4718,3.0074,-1.7626,-2.1197,-1.6096,-1.3289,-0.33404,-1.5327,-0.92038,0.73733,1.0942,1.7573,1.0177,-0.69117,-1.0227,2.5739,2.1913,0.63526,-1.1759,-1.3544,-1.9666,-2.2471,0.76281,0.81384,0.81378,0.25256,0.83921,-1.2779,-0.89523,2.2167,-1.3543,0.12501,0.66069,-0.18095,0.15062,-0.86972,0.32917,-0.64014,0.73718,0.68623,-0.74225,1.8084,-0.99728,-0.81865,0.91588,-0.71654,-0.10444,-0.079075,0.76266,0.22715,-1.7112,-2.3235,-1.227,3.5684,1.885,0.50765,2.7014,-2.6806,-1.5075,-0.58925,-0.76782,-1.0994,0.96688,1.7576,0.22717,-0.079051,-0.71663,-2.2214,2.0125,0.71174,0.32921,-0.02798,-0.079057,-1.2779,-1.2014,1.5534,-1.6351,4.1298,0.48218,-2.6298,-1.6095,1.7067,-0.053299,-0.3341,-0.7676,-0.51268,-0.46174,-0.56375,1.5534,0.07402,1.1709,0.71179,0.53313,-0.13004,-1.3543,-0.71659,-0.38498,0.023152,0.78824,1.0433,-0.66573,-0.25761,1.3749,-0.76775,-0.027993,0.58417,-2.0175,0.50777,-0.71657,-0.56353,-0.99712,1.0434,2.3186,0.20142,1.2218,-0.71682,-1.5329,-0.12994,-0.74214,0.15059,0.71179,-0.053451,-0.12999,0.15056,0.048561,-0.053451,-0.71665,0.78826,0.35463,2.1657,-0.027962,-0.81871,-0.30866,-0.41066,-0.7932,-0.89515,0.09954,0.27806,-0.02798,-0.35943,0.30376,-0.46157,0.15046,2.8033,0.15047,0.15047,-0.028005,-0.9972,-0.56359,-1.0737,-1.0482,-1.788,1.0689,-0.64009,4.9715,0.43121,-0.56368,-0.94625,-2.2982,-1.737,-0.61468,0.38009,0.2271,1.6299,1.4258,0.76269,-0.79285,-1.6599,-0.69126,1.0431,2.293,2.3186,0.78824,-1.0738,-2.1448,-1.8134,-0.61473,1.2219,1.1453,-0.97178,-0.56362,-0.13,-0.66556,-0.30852,2.3187,-0.51263,-0.33407,0.66072,2.0637,0.35469,-1.0228,-0.58922,-1.2524,-0.2321,1.732,-0.79319,-0.35943,-0.2065,1.9361,-0.89521,1.7321,0.27817,-1.8901,0.32912,-1.6094,0.074026,-1.0738,0.45666,1.0688,1.324,0.3546,-0.48714,0.71171,-1.8643,0.074062,0.48198,-0.02809,-0.41046,1.3752,0.30365,0.66078,-0.4872,-1.0228,-1.0994,-2.0176,1.1963,0.76273,-0.12996,-0.30841,-0.25742,-0.002381,-1.2013,1.4004,1.834,0.63517,-1.0483,-1.7114,0.91592,0.12501,-0.20656,-0.30866,0.20155,-0.38503,-1.9409,0.048518,1.1454,2.0634,0.45676,-0.84414,-1.7877,-2.0175,1.7574,1.6299,0.86471,1.0688,-0.00254,-0.56367,-0.92072,-1.8389,-3.2927,-0.46152,6.0938,2.3696,-0.43623,-1.3544,-2.4255,-1.4818,-0.56367,0.40551,0.20155,0.66075,0.5843,-0.69113,0.074008,2.6503,1.0433,-0.81867,-0.027969,-0.94623,-0.74214,-2.4766,-1.1503,2.3442,5.6092,-0.99737,-1.9155,-1.1759,-0.81876,-1.2523,-0.079002,1.1708,0.30364,-0.56346,0.66076,1.0433,-0.35965,-0.028096,1.3242,1.6047,0.66069,-1.0484,-1.0739,-0.23215,-1.3289,-1.1503,1.0179,-0.38497,-1.2266,-0.053464,0.76269,1.477,0.6862,-0.18111,0.12502,-0.079075,-1.0738,-1.4052,1.4515,0.074087,0.83933,-0.20654,1.7575,-1.2014,0.60981,-1.7624,-0.97178,0.55865,-1.2779,1.8596,2.9564,-0.25757,-1.1248,-1.1503,-0.97175,-2.7828,1.7066,1.1964,2.8034,-0.33426,-1.2013,-0.92068,1.2985,-1.0992,0.073989,-1.4054,0.3802,0.48216,-0.002565,0.58411,0.83923,0.60967,-1.4053,1.4004,0.4567,0.43118,-1.5839,-0.38495,-1.737,0.099528,0.12501,0.91581,1.1454,-0.053409,-1.3033,-0.58921,-0.61472,-1.0738,0.50772,4.2063,0.25256,-0.79321,-1.839,-0.15549,0.5077,2.1402,-1.1249,-0.81879,1.5024,-0.00254,-0.20646,-1.8132,0.32917,-0.028054,-0.13015,-0.028114,-0.2576,-1.737,1.681,0.15064,3.9257,0.63531,-0.078898,-1.2779,-1.8136,-1.9921,0.43122,-0.74209,0.96678,0.55862,0.048487,0.15053,0.27806,-0.20639,-1.4306,-0.5892,1.0433,2.1401,2.8799,-0.35966,-1.6605,-1.3033,0.099559,-0.15551,-0.15553,0.02309,-0.76761,-1.1757,-0.58921,0.27795,0.58413,-0.86957,0.91575,0.76265,0.7116,1.5788,-0.20642,-0.69077,-1.4306,-1.0739,0.02295,0.2525,-1.2779,4.2828,0.17601,2.1401,-2.8338,-2.3236,-2.0431,-1.8645,0.50774,0.023047,-0.10451,0.12509,1.4005,0.66072,0.25259,0.48205,0.7118,3.2881,-0.69115,-1.8134,-1.4565,1.3747,-0.02795,-1.9664,-1.4817,1.0432,0.86467,-0.053537,0.43103,0.38004,0.30364,-0.20648,-0.81859,-0.84409,2.0892,1.2984,-0.35957,-0.46159,-1.9409,-1.8389,-0.38503,2.3442,2.4971,2.2421,-2.936,-1.2269,-0.76771,1.4771,-0.64011,-1.6095,0.53316,-0.41063,0.1505,-0.23197,0.58434,-1.839,1.7832,0.94128,1.6299,-0.48721,0.38016,0.099515,-1.6605,1.2985,1.4517,-1.7114,-1.8645,-1.788,-0.56367,-0.15565,2.7012,2.0636,-0.74214,0.12512,-1.0483,-0.1555,-0.30855,-0.69112,-0.51258,0.55879,1.579,0.25259,-0.053464,0.099577,-2.4258,0.60973,0.7627,1.9616,-0.23204,-2.6297,-1.0737,1.0943,-0.99735,-0.74226,2.8034,3.8747,-1.3289,-1.788,-2.1196,0.9924,-0.56354,-0.86973,-1.5584,2.1402,1.4003,0.38013,-0.33411,0.30363,0.32915,-0.5636,-0.48705,-0.15541,0.38027,0.99222,-0.89518,-1.7114,1.7829,0.20145,0.86465,-1.3288,-1.6859,-1.3543,1.7321,1.1454,-1.635,1.1199,1.0944,-0.10443,-0.76778,0.15049,-0.23205,1.8343,-1.0737,-1.737,-0.23204,0.2015,1.5024,0.48214,-1.9665,-0.23193,0.3802,1.0943,2.7778,0.22696,-1.0484,-1.5329,-1.2268,-1.4564,1.5281,-0.25749,-0.58905,0.68631,1.4259,-0.20633,-0.38516,1.5279,0.38005,-0.64019,-0.53818,-0.12996,-1.2524,0.53319,0.048506,0.7117,1.3494,-0.487,-0.38492,-2.0685,-2.4001,0.2526,1.4769,-0.079075,0.99232,0.20158,0.48216,1.8596,-1.0482,-1.6093,-0.35964,0.96679,-0.43613,-0.56367,1.5279,0.02309,0.38017,-0.48714,-0.13002,-0.46164,-0.5126,-0.84389,-0.66558,-0.20663,0.86471,1.1963,0.3546,1.2474,-0.20658,-0.86974,-0.43605,-0.12999,-0.23201,-0.38506,-0.23198,0.35464,0.99232,-0.48714,-1.8135,0.48219,0.15055,3.5686,1.1454,0.09965,-1.941,-1.2269,-1.3544,0.3036,0.63518,-1.1759,0.15054,0.40568,0.27813,-0.6656,0.2527,1.4515,1.3494,0.074081,-0.79319,-0.71666,0.50772,0.60967,-0.92086,-0.028078,0.63519,-0.81875,-0.94612,0.15076,0.12524,-0.4362,0.66057,0.25244,-0.10457,0.43113,0.20163,-1.5584,0.91589,0.48228,0.20169,-0.23196,0.20162,-0.69121,0.32905,0.22702,-0.079045,1.3239,-0.10453,-2.6552,-0.027822,1.8341,-0.079063,-0.28312,-1.3034,-0.25758,0.58425,0.48226,-1.3288,1.5535,0.25272,0.91577,0.35451,-0.35962,-0.15556,-0.13004,-0.28311,-0.41057,-1.0482,0.32918,0.7628,-0.002516,2.2677,0.43119,-0.89524,-1.3543,-0.61465,-0.35954,-0.58911,-0.99731,-1.8136,2.8544,2.6759,0.35472,-1.0738,-1.8136,0.38013,-0.84433,-0.46166,0.099588,1.2476,0.12512,-0.3851,-0.71666,-0.18106,-0.002534,0.38006,0.71164,1.1709,-0.002472,-0.30858,-0.027938,-1.3542,0.20167,0.074149,-0.25755,1.0178,-1.0993,-1.5839,1.171,2.3442,0.50762,-1.2014,-1.839,-0.43607,0.074093,-0.079002,-1.5074,-0.61463,2.3697,3.1094,0.50779,-2.0174,-1.4818,-1.176,0.22694,1.5534,1.885,0.17601,-0.71674,-0.71659,-1.4052,-0.28291,-0.15552,0.71166,0.78814,-0.51248,-0.793,-0.46159,0.30351,0.6861,0.38006,0.17599,-0.3595,0.048525,-0.38512,-0.1045,1.0179,-0.89509,-1.1502,-0.61467,0.32914,1.6045,1.5789,-1.1504,-2.0176,-0.13003,2.5993,-0.38511,-0.027944,-1.5839,-2.0686,3.5686,1.1199,-1.4053,-0.18091,0.38014,-0.84419,-1.5585,1.1963,0.58414,-0.4617,-1.3034,-1.1503,2.5995,4.0277,-0.30855,-1.6859,-1.1759,-0.4362,0.50763,-0.71658,-0.46156,0.074038,-0.15543,0.048536,-0.20657,1.2474,0.17611,0.43112,0.38002,-0.94625,0.17622,-0.53783,-0.33404,0.38001,-1.4564,-0.10461,2.2676,0.99224,-0.84424,0.5332,1.8596,-1.4818,-2.1705,-1.3542,-0.30849,-0.053506,-0.25763,0.40557,0.022998,0.50771,1.4259,1.4514,0.048555,-0.89515,-0.66558,-0.74218,0.15052,1.5789,0.99227,-1.2779,-1.635,1.3239,-0.12992,-1.3542,-2.1705,0.60973,0.073917,0.99221,-0.079039,1.1963,0.27808,-0.69111,0.17612,-0.69117,0.099601,0.7883,0.22724,-0.71654,-0.028029,-0.002558,0.17607,0.022961,-0.84428,-1.2014,1.732,3.186,-1.0991,-2.247,0.63526,-1.1504,-0.25763,-0.66577,-0.10451,-0.30849,0.12503,0.30363,-0.33398,0.71169,0.53317,0.35473,0.023133,1.2218,0.20172,-0.51269,-0.28317,-0.13005,-0.10448,0.55867,-0.38513,-1.3799,0.3036,1.0689,-0.61462,-1.3798,-0.97161,0.023096,0.71173,-0.35954,0.99234,0.5076,0.35451,0.55857,-0.48715,-0.6911,0.27827,1.0689,-1.2779,-0.18114,2.1145,0.3802,-1.0226,-0.92069,1.1454,1.681,-0.48717,-0.64018,-1.0738,-0.94623,-0.35953,0.09954,0.048525,0.99237,-0.51249,0.63518,0.60965,0.53311,-0.079088,-0.94617,0.43128,0.4057,-0.28307,0.048463,0.25249,-0.18104,-0.56358,-0.46157,-0.8951,0.35465,0.099461,2.6758,1.7575,-1.3033,-2.043,0.12504,-0.28309,-0.92078,-0.56361,0.22715,-0.56358,-0.232,-1.2778,0.99229,2.9309,2.4718,-0.56368,-0.79324,-1.9155,-0.23202,0.074008,-0.28302,-1.1758,-0.078966,1.5535,-0.28311,0.43112,0.099528,0.048549,-0.74211,-0.23197,-0.25759,0.074209,-0.35958,0.048469,0.048555,-0.2065,0.4056,0.43101,0.32905,0.20154,-0.053402,0.40582,-0.69117,-0.86976,1.528,0.048531,-0.58908,-1.1758,0.20162,0.38011,-0.41063,0.4056,1.2473,0.40566,-0.92073,-0.92072,0.27814,-0.18102,-0.71654,-0.58889,0.07402,1.1452,0.5076,0.2015,0.6606,-0.1045,-0.69106,0.35473,0.50774,0.60969,-0.79318,-1.3543,0.8648,-0.53809,0.99233,-0.61472,-0.76772,-0.28308,0.20159,-0.35953,0.35465,1.3494,1.477,-0.48713,-0.79324,-0.58911,0.27813,-1.0482,-0.64013,0.48214,0.048512,1.4514,1.579,-0.48709,-0.66536,-1.2011,-0.46164,-0.002607,0.27792,0.20149,-0.053519,0.3036,0.30363,0.40566,-0.41051,-0.33397,0.30362,-1.0226,0.074149,0.2527,-0.64004,0.20151,-0.10466,0.94113,0.30363,-0.28308,0.3546,-0.64017,0.71167,-0.18102,-1.2012,-0.53781,-0.71651,0.43105,0.73708,0.63509,0.76271,-0.35948,-0.002454,-0.43604,0.60971,0.66073,-0.30858,-0.58921,-1.1502,0.58429,0.66077,0.71169,0.27804,-0.64017,-0.20652,-1.1247,-2.2471,0.30372,1.5534,0.50758,-0.79316,-0.35952,0.60968,-0.002454,0.6097,-1.2268,0.38016,1.6299,0.43103,0.1505,-0.43609,0.2781,-0.89513,-0.28292,-0.027846,0.86482,-0.15553,-0.58919,-0.7167,-0.18104,-0.89525,1.0944,0.99237,1.375,-0.35965,-0.89532,-0.28308,-0.89527,-0.4616,0.12513,0.7884,0.71169,0.66056,-1.0739,-0.10439,-1.2267,-0.38505,1.63,1.6299,-0.078984,-0.56353,-0.4871,-0.33412,-0.66567,0.048512,-0.20653,0.12513,-1.0482,0.68642,0.22701,1.6044,-0.76778,-0.20659,0.12509,-0.3085,0.38015,-0.25753,-0.002467,-0.33407,-0.53812,0.12506,0.94129,0.53318,-0.58911,-1.6603,-1.2011,-0.38511,1.6809,0.96665,-0.28312,0.09957,0.45669,-0.079002,0.099626,-0.35951,-0.89528,-0.28305,0.63522,0.25253,-0.92081,0.5587,-0.078917,1.1455,0.55884,-0.33407,-0.76773,-0.56369,-0.41063,-0.4871,0.12504,-0.58919,0.48214,0.48227,-0.15542,0.53315,0.074008,0.22708,-0.28304,1.1454,-0.18106,0.45661,0.60965,-0.30854,-0.79318,-1.1247,-0.20652,0.40564,-0.23206,-0.13001,0.25258,0.2271,-0.46157,-0.25751,0.38023,1.2474,0.63515,0.17597,-0.89523,-1.5329,0.45669,0.2017,0.99222,-2.2726,-0.51256,1.3749,1.0433,-0.84426,-0.18108,0.86478,0.63521,-0.46154,-0.79314,-0.05347,1.6045,-0.53811,-0.66565,-0.23201,-1.6349,2.9819,-0.61467,0.1761,-0.81872,-0.56353,0.81369,0.12497,-0.15559,-0.5381,1.6301,-0.35952,-0.53806,-0.46165,-0.66577,0.68615,2.3187,-0.15547,0.15056,-1.4563,-1.3031,-0.002394,1.5024,-0.02809,-0.74225,0.53319,-1.6604,0.71181,2.3186,0.022937,-0.86971,-0.69112,0.25259,-0.002479,0.048536,-0.46161,0.43118,-1.2268,-0.58912,1.8596,1.477,1.4005,-1.3289,-1.3289,-0.84422,-0.33412,-0.43616,0.6606,-0.002521,-0.078868,-1.609,-0.4615,0.94111,0.53308,0.89015,0.43106,0.73717,-0.2321,-0.30849,0.074093,0.73734,-1.4308,-0.51255,0.35462
-0.078984,0.074051,-0.002467,0.023041,-0.079008,-0.027962,0.023035,-0.078972,0.12506,0.099559,-0.053482,0.023023,-0.078972,0.048555,-0.18102,0.023029,0.12507,-0.10449,0.074044,-0.002461,-0.20652,0.048525,0.12507,0.099564,-0.0535,-0.027969,0.023065,-0.002461,0.074038,-0.002479,-0.002467,0.048549,0.099546,-0.053495,0.048549,-0.002454,0.023041,0.15056,-0.10447,-0.027974,0.023041,-0.15549,-0.002467,0.074057,-0.078972,0.023029,0.12506,0.023041,-0.027969,0.099546,-0.05347,0.048555,-0.053482,-0.002485,-0.027974,-0.078972,-0.027956,-0.078984,0.023041,0.023054,-0.15551,-0.0535,0.17606,0.048549,0.099564,0.048536,-0.02798,-0.027962,-0.027962,-0.1045,0.023023,0.023041,0.12507,-0.027962,-0.13001,0.074038,0.12507,-0.027969,0.099546,0.023047,-0.10448,-0.002479,0.023035,-0.1555,0.074044,0.048555,-0.053464,-0.053476,-0.027974,-0.002448,-0.027969,-0.002485,0.074057,-0.002461,-0.053488,0.023041,0.023054,0.023041,0.074038,-0.002472,-0.10448,-0.07899,-0.002467,-0.027956,-0.053482,0.074038,0.048549,0.023041,0.099552,0.048549,-0.078972,0.074038,0.048549,-0.23202,0.048531,0.15058,-0.12999,0.15056,-0.027974,-0.05347,-0.078984,-0.027993,-0.078966,-0.027974,0.048549,0.023047,-0.07899,0.023029,0.048549,-0.002454,-0.053476,-0.027987,0.023035,0.023047,-0.027969,-0.002485,0.048555,-0.027962,0.023041,0.074057,-0.078977,0.023035,0.099552,-0.002454,0.023041,0.099559,-0.078984,-0.027969,0.12506,-0.1045,0.023035,0.074038,-0.15549,0.15057,-0.10449,-0.20651,0.048549,0.074057,-0.05347,0.048536,0.12505,-0.078972,-0.1045,0.074038,-0.002454,0.048555,0.023023,-0.027969,-0.10448,-0.15551,0.048531,0.099552,-0.002448,-0.181,-0.053488,0.099564,-0.002448,-0.027974,-0.053488,-0.05347,-0.078984,0.074038,-0.10449,-0.078972,-0.10447,-0.13001,0.12505,0.09957,-0.002454,-0.07899,0.048536,0.074057,-0.002454,-0.027969,-0.027993,0.048549,0.023054,-0.07899,0.099559,0.12505,0.023041,-0.15551,-0.10449,0.048549,0.099564,0.074038,-0.002485,-0.10449,-0.078972,0.023041,0.023029,0.023029,-0.07899,-0.181,-0.027969,0.099559,0.15056,-0.078984,-0.078977,0.048567,-0.002467,0.099546,-0.07899,-0.002461,0.048561,-0.079008,-0.10452,0.048555,0.074075,0.074057,0.048536,0.099564,-0.027962,0.048531,-0.002461,-0.12999,-0.10449,0.023041,0.048549,-0.05347,-0.002467,-0.10451,-0.1045,-0.053458,0.20159,0.20159,0.099552,0.023035,-0.10448,-0.078977,-0.002467,-0.002479,0.023023,0.023041,-0.002448,0.048549,-0.07899,0.099546,0.074062,-0.002467,-0.10449,-0.027974,0.048549,-0.002472,0.074044,-0.10449,-0.053464,0.074062,0.15056,-0.13001,-0.027974,0.048567,-0.002461,-0.002467,-0.027974,-0.078972,0.023041,0.074044,-0.1555,-0.027974,0.023029,-0.078996,0.048549,-0.002461,-0.05347,0.074038,-0.027962,-0.027974,-0.053482,0.099564,-0.002461,-0.053464,0.12505,-0.078977,0.023041,0.099546,-0.10449,-0.002461,0.074057,-0.10449,-0.002467,-0.002467,-0.15549,0.074038,-0.053482,-0.002472,0.099546,-0.13001,0.099552,0.20158,-0.078972,-0.02798,-0.027987,-0.10448,0.12507,0.074038,-0.053482,-0.027962,0.074062,0.074057,-0.027987,-0.002467,0.048555,-0.027956,-0.20653,-0.027993,0.09957,0.12509,-0.078996,0.099552,0.048555,-0.002467,0.074038,-0.053476,-0.078996,0.074038,-0.078972,-0.053482,-0.002479,-0.027956,0.023041,0.023023,0.074057,-0.027956,-0.053495,-0.027969,0.023059,-0.002472,0.12505,0.12507,0.023041,-0.002485,-0.1045,-0.10447,-0.027993,0.023041,-0.002454,-0.002467,0.023029,-0.1555,-0.13001,0.099546,-0.027974,-0.078972,0.20158,-0.027974,-0.053464,0.099564,-0.027987,-0.027974,0.023059,-0.05347,-0.027974,-0.027987,-0.053476,-0.053464,-0.027987,-0.027974,-0.027962,-0.002461,-0.002485,-0.053488,-0.05347,-0.002461,0.048531,-0.053482,-0.05347,-0.002454,0.048549,0.048531,0.023023,-0.13,-0.05347,-0.027962,0.048549,0.048531,0.12505,-0.1045,0.048543,0.023059,0.15056,-0.13001,-0.05347,0.099583,-0.027969,-0.002485,-0.002461,-0.053464,0.074057,-0.027993,-0.18104,0.023054,0.17609,0.099564,0.074044,-0.078996,-0.10449,-0.027956,0.099564,-0.002472,-0.002485,-0.181,-0.05347,0.023041,0.023029,0.023041,0.023059,-0.078972,-0.078996,0.048536,-0.027969,-0.002448,0.023041,0.023029,-0.07899,-0.002472,-0.05347,0.023041,0.023035,0.074051,0.023029,0.17607,-0.002467,-0.053482,-0.1555,0.023041,0.20157,0.023041,-0.053482,-0.002454,0.048567,0.048549,-0.027993,0.023029,-0.002472,-0.10447,-0.002467,0.074062,0.074038,-0.13001,-0.15551,-0.12999,0.074075,0.048555,-0.078984,0.048531,0.023041,-0.05347,0.048549,0.099546,-0.002485,-0.05347,-0.027956,-0.053476,-0.027987,-0.027974,-0.002454,-0.027974,0.074038,0.023041,-0.002448,0.023041,-0.027974,-0.027987,-0.1045,-0.053488,0.023041,0.048549,-0.002485,-0.078984,-0.027962,-0.027956,-0.002454,-0.13,-0.053488,-0.002467,0.072198,0.072198,0.1232,0.19971,0.15057,-0.027962,0.048555,-0.002472,0.074038,-0.027974,0.099564,-0.1045,-0.25756,-0.053476,0.12509,0.15058,0.20158,-0.002479,-0.027969,-0.053458,0.023054,-0.027974,-0.002479,0.048531,0.023035,0.048543,-0.027956,-0.002461,0.074038,0.048531,-0.002467,-0.12998,-0.027956,-0.10448,-0.002467,0.074038,0.048567,-0.02798,-0.002479,-0.027969,0.048561,-0.027987,0.023035,-0.078972,-0.027969,0.023029,0.023041,-0.078972,-0.13001,-0.027974,0.023054,0.099552,-0.027969,-0.002467,0.074038,0.074057,-0.002467,0.048536,0.099564,-0.28305,-0.10452,-0.002443,-0.027969,0.15057,0.048573,0.15057,0.074051,-0.002448,0.074038,-0.027974,-0.053476,0.023023,-0.12999,-0.053495,-0.002454,-0.027974,0.074057,-0.078977,0.023035,0.12507,-0.078984,0.074044,-0.05347,-0.053488,0.023041,-0.10448,-0.1045,0.074069,0.023054,0.048525,0.048549,-0.078977,0.048536,-0.078972,-0.027974,-0.002467,-0.05347,-0.002467,0.023041,-0.07899,0.023029,-0.027969,-0.1045,0.074038,0.023054,-0.027974,0.099564,-0.078984,0.023047,0.023047,-0.002479,0.048549,-0.18101,-0.002479,0.023041,-0.002448,0.12505,0.048555,0.099559,-0.002479,-0.027969,-0.078984,0.074038,-0.05347,-0.1045,0.074051,-0.053464,0.099546,-0.002448,-0.053482,-0.027974,-0.078972,0.048536,-0.027956,-0.002467,-0.053482,0.023041,-0.13001,-0.002454,0.023023,-0.002454,-0.10452,0.12507,0.074057,-0.25754,-0.078977,-0.002479,0.66075,0.66072,-0.33405,-0.58914,-0.41059,0.023059,0.023023,0.074062,-0.053482,-0.30856,-0.18101,0.20158,0.83928,-0.56362,-0.89526,1.5025,1.2474,0.20164,-0.002448,-1.4309,-0.58914,1.4259,-0.35964,-2.0686,-3.8031,0.83926,1.6045,6.4255,-0.28293,0.22714,-3.4205,-2.3237,-0.053464,0.30351,2.8289,-0.92073,-3.14,1.5534,2.8288,3.6451,2.1658,-2.1961,-3.0889,-1.2779,-2.3748,-0.99742,0.78836,1.5793,1.5541,0.074069,-0.97201,3.5688,-1.8393,-0.74245,-1.9157,2.4206,-3.1143,0.25241,4.895,4.028,-2.7063,0.45718,2.2933,-2.4517,-1.7627,-2.1198,-0.053573,-2.4766,1.1201,4.5888,-0.35913,0.5845,1.5792,-2.7312,-2.6808,0.50729,0.78757,1.2212,2.4713,-2.145,-2.0686,7.0123,2.1151,-2.7311,-0.41073,-0.002723,1.4252,-11.251,-3.8528,2.1664,4.1804,5.1236,2.5218,-1.4826,-0.53843,-2.0686,0.43151,-1.6091,-1.0733,-3.1397,5.9407,-1.6091,0.27874,-2.3997,-3.5988,0.89002,-0.38521,2.6758,5.3538,-3.9823,5.3282,-1.8903,1.2983,-1.9919,-1.2522,-1.5583,-1.4817,-0.66547,-0.48697,0.074173,-0.48702,-0.7166,6.4765,1.6555,2.6246,-3.7521,-4.7467,-2.9101,5.5835,4.0529,0.099485,-4.4916,-1.5073,0.89021,-1.0742,-1.533,-0.56368,0.15102,0.48241,2.7522,0.94107,-0.30855,-0.028042,0.17603,0.074033,-1.6349,-0.1805,-2.757,2.6502,3.492,3.1349,-1.1248,-2.7064,-1.431,-1.38,-0.89533,-0.86977,-1.4564,0.45669,-0.69119,2.5739,0.023096,-0.56354,0.94134,6.7061,-0.23222,-0.2831,-1.2524,-5.1037,-2.6547,3.3898,1.3492,-0.23227,-0.10469,0.17591,0.45642,-0.23201,-0.0535,-2.7568,3.3136,2.3953,-0.66558,-1.4819,-1.1504,-0.61477,-1.023,1.6044,1.7319,-2.8844,-1.7873,2.8799,-0.58925,2.8541,-0.18132,-0.99747,-0.30868,-1.6349,1.222,-1.7623,0.86481,-1.7625,6.0175,1.6557,-2.6807,-3.2164,0.20137,1.0942,-0.48716,-2.2468,0.83937,-0.86981,0.45651,0.1505,0.89018,0.94114,-0.48719,-0.51233,2.2681,1.4771,-1.4052,-0.56379,0.48191,0.022772,-0.30875,0.89026,-2.1962,-2.247,-1.4308,8.6447,1.3494,-1.4564,-2.4259,-3.3692,-2.5019,0.96667,1.8852,1.0942,-0.002595,-0.48733,-0.1812,0.20161,-0.12971,-1.0224,0.68622,2.931,-1.1502,-0.38536,0.048249,2.1911,-0.97178,-0.61467,-1.3544,0.81379,-0.94609,-1.1757,-1.0227,0.38012,2.3441,-0.58921,1.171,-1.2776,-2.6551,5.6348,-0.94637,1.4768,1.0942,-2.4004,-3.0636,1.8598,-0.33399,-1.5584,-0.56364,-0.5381,3.645,-0.99731,0.25256,1.783,1.273,-0.94606,-1.9665,-1.2523,0.35462,0.20158,-0.10439,-0.97158,0.55861,1.6298,1.6042,1.0942,-5.6905,2.8802,1.4004,-0.86971,-1.5583,1.0689,-2.0686,-0.53836,1.783,-4.6194,4.2827,0.20153,-0.6911,3.0586,-1.099,-0.53798,-0.002491,0.45659,0.35458,-4.7214,-3.1144,0.66069,-0.078966,-0.7166,-0.23207,1.5535,3.1349,4.6655,0.09957,-0.69131,2.2676,0.43078,-1.0482,-4.389,-4.6953,-1.6096,4.308,1.8082,1.5787,0.737,3.0073,-2.0429,1.4517,-1.9919,-1.0227,0.15035,-1.6858,-1.89,-0.027553,0.81371,0.91555,0.78818,3.7726,0.78827,-2.8338,-0.30846,0.27798,1.2728,2.0127,-3.8796,-1.635,-0.1045,2.4462,-1.6348,-1.5839,-1.9153,-0.30853,0.81364,0.50754,3.4919,8.415,-0.181,-2.7572,-1.329,-1.5075,-2.2472,-2.5273,1.5286,1.8085,-0.23215,-0.84452,0.12489,3.3134,0.20129,-0.66574,-1.7626,1.8596,-0.30841,-0.92062,1.324,-2.3234,-0.079002,1.0177,0.023029,-2.8338,5.3541,-1.941,-1.5326,-1.7878,-3.4971,1.1962,6.0682,1.0942,-1.533,0.73725,0.22705,0.023176,-1.7622,-0.79319,-1.6859,-0.38516,1.7319,2.9564,-0.30841,-1.2267,-0.5637,-0.58921,-0.38517,0.94119,-0.028158,-0.18087,-1.4561,0.78846,0.48222,0.048268,0.68627,-0.07883,-3.5225,2.3187,1.9359,1.1707,-1.4055,-3.8539,-0.46122,-0.56328,0.3545,0.71146,1.6042,0.86461,1.732,-1.7624,4.6145,-1.0227,-2.094,-2.1961,-1.5584,2.5483,-0.74226,1.5025,-4.007,0.45686,1.8088,0.048458,0.37985,0.30343,0.43111,-0.41044,-1.9153,0.27808,1.7575,0.12515,1.0944,-0.079093,0.6096,-0.43619,-0.94632,-1.1758,0.68643,-2.2215,0.55876,1.6555,-1.1501,-1.5583,1.3494,0.073855,2.089,-0.79334,1.0434,-0.89526,-0.53817,-0.20667,-1.2012,-1.4051,0.76289,-0.79332,2.2931,0.81373,0.38009,-1.0483,0.27821,-0.51258,0.45657,0.83919,-0.61465,1.7324,-1.4307,-1.3035,-1.2525,0.20138,3.1348,-0.51273,-1.6604,-0.4105,-1.4562,-0.69097,-0.89494,0.58403,1.5788,1.8594,2.14,-0.66571,-0.41063,-0.56361,0.73736,0.074204,-0.89515,0.09957,-0.23207,-0.12977,-2.4766,-0.079216,-0.921,1.4002,-0.86941,-2.1957,1.0944,2.7521,0.71149,1.0942,-0.18101,-1.788,-1.6859,2.4463,0.22715,-1.4052,0.76273,-0.41065,1.3493,-1.2777,-1.4563,-0.46154,0.073977,1.5024,-0.20658,-0.81862,-1.9154,2.1656,0.099491,1.1198,0.1504,3.4409,-1.2013,-1.6604,-1.8643,-2.145,-0.13002,2.4463,1.0688,1.2219,2.9054,-1.2779,-2.4002,-1.5074,1.4004,-0.76767,-1.1758,0.71171,0.35464,-0.63977,-0.89485,0.099473,1.2472,1.6042,0.20138,1.4258,-1.6859,-0.58881,-0.61441,1.2218,-0.15565,-0.25768,0.63516,0.38018,-0.10445,-2.0941,0.27814,1.3751,-1.4563,1.5025,-0.92078,0.25284,-2.5276,1.5534,0.022815,1.7319,1.1708,0.5332,-1.3033,-1.0993,0.25268,2.2424,-0.4614,-0.53812,-0.2831,-0.86975,-1.2524,0.17603,-0.43606,-0.12998,0.0741,-0.20653,1.9871,0.15056,-2.0686,1.6554,2.2677,0.35479,-0.97173,-0.002528,-3.4968,1.3494,1.63,-0.46167,-1.431,2.1146,-0.79326,0.30358,-1.0483,-0.23193,0.0488,-1.7877,0.35475,0.15066,0.89029,3.2112,-1.0229,-0.053665,-0.69139,-1.0737,-1.4818,-0.56348,1.2475,0.9923,-0.2065,0.38021,-0.079002,-0.46158,-0.64019,3.5431,-0.53812,-1.2267,-1.099,-2.9102,1.5024,1.2727,-0.6914,-1.0229,1.0434,1.5026,-0.81879,-0.33424,0.17617,-1.0225,0.83933,2.8799,0.5331,-2.1196,0.48247,-1.1503,-1.38,-0.053537,-0.79313,0.3546,0.78816,-0.20665,0.6097,-2.8337,0.5589,2.3699,0.73723,-1.6606,2.6502,-0.23218,3.1095,-1.9409,-1.6859,-1.4055,-1.0741,-0.12996,0.63527,-0.12998,0.4566,-0.41058,-0.25752,-1.9154,3.6196,6.502,-0.41063,-1.4054,-2.4767,-2.3492,0.099619,-0.56368,0.43118,1.681,-0.38507,-2.0173,-1.7112,0.40544,0.55859,0.40571,0.45656,-1.533,1.4768,1.834,2.9308,-0.25751,-1.7623,-2.2215,-2.145,0.50758,0.278,0.048494,0.023065,0.12512,2.982,-0.43618,-1.686,0.048525,-0.41051,-1.9154,-0.0535,0.86475,1.375,2.5228,-0.027969,-0.079155,-1.3034,-0.10455,0.60974,-2.8337,0.27808,0.43127,2.6247,0.45656,-2.2471,-1.3798,1.3749,-0.23209,-0.56361,-0.13,-0.56361,1.0943,1.4006,-2.0685,1.2474,0.96696,0.6352,-1.1504,1.4512,-1.0995,-0.86966,-1.8388,-0.71668,1.3748,1.4258,-0.1301,-0.76768,2.472,-1.0991,-0.66562,-0.33396,0.55865,-0.002588,0.30344,-0.58889,-0.8188,-0.18113,2.4972,0.78835,-0.58911,0.76273,-2.0941,0.15052,-0.92074,-0.38499,-0.25748,0.48219,0.3292,-0.94612,-0.4871,-1.2777,0.15051,0.5586,0.83915,0.91565,1.1962,0.30372,-1.813,1.1964,0.78818,-0.20663,-0.53821,-0.66583,-0.64023,-0.48702,0.71185,1.2219,-0.64016,-0.15544,-0.92078,1.5534,-2.0431,2.1913,-1.1757,-1.3542,1.9105,0.2015,-1.2269,-0.56374,1.0942,-0.028085,-0.23205,-0.35942,0.40587,-0.38505,0.68621,1.1453,0.83925,0.073989,-0.078861,-0.69102,-3.5222,-0.33405,1.2727,0.63499,0.15037,-0.81871,2.5226,3.8749,-1.8135,-1.2524,-0.30848,-1.5839,-0.46159,-1.5074,-2.4513,4.8441,2.829,-1.8645,0.89029,-0.6912,0.30354,-2.2217,0.58424,0.32907,-0.078972,-0.5891,-0.20657,-0.13005,-0.48703,1.0689,2.6758,-0.10457,-0.86984,-0.56347,0.78849,0.89016,-2.1195,-3.2164,0.15059,1.2983,2.242,-0.66568,-1.3798,-1.7369,0.71171,-0.30858,1.8341,0.20163,0.60976,-1.8645,0.94132,0.96676,0.78819,2.5993,0.83923,-2.7062,0.074026,-2.5531,-2.0685,0.20186,0.78833,1.6044,0.99221,1.0431,-0.89527,0.76278,0.66075,1.4515,0.074038,-2.1705,-2.2981,0.63523,1.1965,0.099406,0.58416,0.22699,-1.4818,-0.76757,-2.1452,-1.0481,3.9257,4.589,0.55878,-2.7061,-1.8135,-1.3291,-0.81896,-1.0229,2.8033,2.9819,2.0893,-1.6604,-4.5681,-1.2265,0.63513,-1.2779,0.32905,2.7013,0.94121,0.58412,-1.686,-1.9665,1.9107,2.7778,1.6554,-0.92081,-0.66549,-4.4401,-0.99727,1.6042,1.5276,-1.2268,0.81376,0.15043,1.4768,0.68615,0.22708,0.12512,-0.00243,-0.33396,-0.41049,-0.23192,-1.3543,0.66075,1.6811,0.023103,-0.35969,-0.35972,0.17607,-1.4819,-2.6043,-0.20662,3.5686,3.5176,-0.33425,-1.8644,-2.1448,-0.64,-1.3799,0.66065,3.2368,0.76265,0.27808,-1.6348,-1.6604,-0.13009,0.5841,0.17604,-0.20653,-0.35961,1.426,-0.69114,-0.25756,-0.02792,-0.28303,-0.74206,0.4823,0.43117,-0.97185,-1.0993,2.3699,-0.02792,-0.99745,1.1453,2.2931,-0.002674,-0.74233,-0.56356,-1.6857,0.60985,0.5332,-0.89529,1.4004,-0.002472,-0.10433,-2.298,3.288,-0.86977,0.66062,0.2526,-0.23209,-1.0481,0.22718,-0.5382,0.48214,0.099632,0.32898,-0.28323,1.5279,-0.74204,-0.99695,0.1507,1.1963,1.1706,0.15044,-1.3034,-1.6093,0.96693,-0.46167,0.91585,-2.0684,0.09965,0.073959,2.6757,-0.23217,0.27803,-0.20647,-0.71671,-0.69102,-0.25752,-0.5126,-0.76764,0.50766,1.528,1.7321,0.20152,-0.28309,-0.79324,0.32905,-0.76773,-1.2778,1.7576,2.3443,-1.2268,-1.2268,0.048487,0.22705,-2.6043,-1.6605,0.9414,3.1353,-1.8897,-0.43628,2.1654,-0.97194,1.0432,0.15046,1.069,-1.2268,-0.61467,-0.13018,-0.46151,1.0944,-0.4871,-0.027944,0.53325,-0.30849,-0.844,-0.41046,0.17594,0.35447,-0.15564,0.20153,0.45672,0.66089,1.8084,-0.38517,-1.3289,-2.1706,0.099613,0.38013,1.5535,0.58414,-0.79319,-0.71657,-1.7113,-2.0429,2.6249,0.94114,2.548,-0.10469,0.83926,0.63543,-0.97176,-0.46179,-1.2269,-1.1502,-0.61456,0.53316,-0.027993,0.53332,0.22705,0.048512,1.6809,0.66062,-0.58909,-1.66,-1.303,0.048433,0.45634,0.30329,0.3802,2.1658,0.22715,-1.3798,-1.0484,-2.1962,-0.64027,3.237,1.2475,-1.3032,-0.9206,-0.79318,-0.2321,-0.25757,-0.028023,1.1709,-1.0483,1.1199,-0.4106,0.12508,1.2985,1.1199,-0.002479,-0.9463,-1.1504,-0.99729,1.7577,1.2476,-0.76767,-0.2067,-0.13008,-1.2267,-1.0739,-0.51273,0.68605,-0.25745,-0.51235,0.81387,-0.20652,-0.94645,0.43131,5.0735,0.73735,-1.3289,-0.48728,-0.69126,-2.7827,-0.23201,1.1708,-0.69116,0.99249,0.40565,-0.46167,-0.61473,0.86469,-0.3852,1.5538,-1.456,-0.74217,1.7065,-0.92084,0.25236,-1.0484,0.73719,2.7523,0.27805,-0.9971,-1.5328,-0.35954,0.53319,1.0178,1.2476,-1.0484,0.40558,-0.20661,0.5076,-1.5072,-1.0482,1.0944,1.1198,-0.28312,0.38003,-0.71679,0.25248,-0.30851,0.48221,-0.79316,0.96681,1.8086,0.40585,-2.196,-1.635,2.7523,0.86463,-1.2524,0.38014,-1.4819,-2.1194,-0.02795,-0.46159,0.68617,1.8594,0.38018,-0.18108,0.38001,0.55871,0.9415,-0.41046,-0.30838,-0.84425,-0.20669,0.073965,-0.46172,-0.28315,-0.053451,-1.5837,-1.3031,2.0381,1.3238,0.78813,0.63506,-0.35961,-2.9356,1.12,-0.28303,-1.7371,4.2827,1.3494,-0.58927,-0.43624,-0.89531,-0.35946,-2.0681,-1.5327,0.45661,0.71154,0.20141,1.2727,1.0178,0.38027,-0.76767,0.048531,0.20158,-0.71664,-1.7879,2.2933,0.099546,-0.53806,-0.9207,-0.46168,-0.35962,0.89024,-0.25755,-0.38491,0.58421,0.73716,-1.2268,0.27808,-0.33413,2.3442,0.68626,-1.1502,-0.76767,1.2984,0.25258,-1.4053,-1.0991,-0.74206,-0.92076,-1.0994,1.987,1.1708,3.1094,-0.76768,-0.79318,-0.76768,0.17616,-1.0481,-1.5583,0.20164,1.6045,0.35453,-0.69119,0.12507,0.94124,0.40559,-0.56366,-0.33411,-0.30855,-0.81871,-0.89519,-1.8645,3.9766,3.3901,-0.5378,-3.012,-1.482,-0.94635,0.27778,0.43086,-0.20675,1.3492,0.81363,0.32923,-1.7111,-2.1701,1.7325,4.8694,0.3288,-1.6351,-1.8391,-1.3035,-0.66577,-0.30863,-0.38509,0.023114,0.89042,0.96693,-0.41056,-0.56362,0.94134,0.60962,-1.0992,-2.145,2.5993,0.76272,2.3441,-1.1759,-0.66574,-1.533,-1.5584,0.94137,-1.5073,-0.69119,0.45672,-0.58921,-0.2319,-0.002356,1.1963,1.8084,1.5788,-1.0735,-0.6401,-0.53818,-1.4054,0.66064,2.9564,-0.46168,-0.53823,-0.76771,-2.7315,-0.20633,2.4208,0.20155,-0.79332,-0.25763,-0.94612,-0.79324,0.048512,1.1198,2.2933,1.528,-0.002577,-0.74236,-1.2777,-0.69109,-0.28324,0.53298,0.66086,-1.8132,0.02301,1.4769,0.63524,0.58429,-0.76776,0.81364,0.023163,-1.2521,-1.3541,1.1961,0.048342,-0.28313,0.55864,-0.35957,1.1708,-0.6399,-0.79291,0.73703,0.38011,-0.53815,0.40547,1.4259,-0.56363,-0.6145,-2.2469,0.81385,0.30336,1.1198,0.99239,-0.58916,-0.76767,-0.76772,0.15049,0.53341,0.17625,0.023041,0.32897,-1.2014,1.9106,-0.13004,0.30356,-0.25766,0.55858,0.38018,-1.5325,-1.3029,-0.30866,0.94104,1.2983,0.86467,0.32904,-0.18108,-0.18101,-0.56354,-1.3034,0.60985,-0.4612,0.60993,-0.66566,-0.6913,0.27791,0.55848,0.83912,0.27815,-0.53808,-0.20655,0.38019,2.5994,-1.3798,-1.3288,0.76275,-0.41063,-1.4054,-0.181,1.5279,0.63529,-0.97184,0.30366,-0.61447,-0.86969,-0.13013,0.5585,0.73709,1.0687,-0.33396,-1.6857,1.2218,2.0638,-0.99691,-0.84421,-1.635,0.53298,2.1145,0.68611,0.15049,-0.18089,-0.15546,-1.5329,-2.4001,-0.18097,1.9871,0.023096,-0.002412,0.048469,0.3035,0.35458,-0.25749,-2.1704,-2.2727,3.3646,4.6909,2.8287,-1.1249,-1.8901,-2.4255,-1.7115,-0.41057,-0.1555,0.38017,0.43117,-0.079014,0.45669,-0.15549,0.35462,0.66077,0.30365,-0.58911,-0.15555,-1.0992,0.45688,0.53308,2.242,-1.6351,0.60952,1.0432,-0.10413,-1.9152,-0.99726,0.55837,-0.64012,-0.56358,-0.79328,1.1198,0.78821,0.048555,0.71175,1.0944,0.02309,-0.81859,-0.99712,-2.1196,0.30358,4.0532,0.78841,-0.97175,-1.0483,-0.76782,-0.71679,-0.81884,0.68616,0.40564,-0.18083,-0.38489,0.099577,-0.053525,0.63517,0.099588,-0.5126,1.0688,1.4005,-0.41061,0.35463,-0.56364,-0.38514,-1.5839,-0.35956,-0.51235,2.0128,0.073971,0.099442,-0.28315,-0.46164,-0.33418,0.63531,0.0741,-0.079008,-0.30849,-0.76766,0.20146,-0.89526,2.6247,3.9767,1.0435,-2.7316,-2.2215,-0.38511,-1.227,-0.58926,1.477,0.15054,-0.078996,-0.028005,0.48219,-0.13001,-0.71668,-1.3033,0.94153,2.5994,2.4207,-1.8644,-2.247,-0.53832,0.073995,-0.23195,0.55861,0.25243,0.89027,-0.15542,-0.2066,-0.53816,-0.053458,-0.63998,1.0943,0.12497,0.15054,-0.79296,-2.1448,1.0178,1.885,3.1093,-1.0739,-2.0686,-1.533,0.53318,0.023023,-0.61456,-1.2778,-0.79327,1.9617,1.5281,0.99223,0.81363,-0.84412,-1.0994,-0.2575,0.55858,-0.28305,-0.89505,-0.61447,0.22708,-0.053458,0.38007,0.71162,0.32898,0.38004,-0.053506,-1.0482,-0.71643,-0.30855,-0.10439,1.579,0.91575,-0.48716,0.40555,0.55864,-1.2013,-1.3541,-0.13002,-0.23215,0.15046,-0.69121,-0.18105,0.96683,0.1761,0.76266,0.83926,-1.1757,-0.89497,-2.604,4.4358,2.7012,0.15062,-1.5331,-2.3748,-1.6607,-0.15553,0.35446,0.15062,-1.4051,0.66084,0.73712,0.43111,-0.15549,-0.86961,0.94134,1.1199,1.9615,-0.15557,-1.4307,-1.1503,-0.69116,-1.6351,2.9308,0.66074,0.38031,-2.7313,0.074002,-0.48734,0.58398,0.17585,0.86463,0.2015,-0.43606,-0.97129,-0.23188,-0.41049,-0.76757,1.5024,0.48198,0.38001,-0.028029,0.074044,0.02309,-0.38502,-0.28303,-0.64012,-0.71665,0.78829,1.5281,0.45669,-0.25753,-0.64017,0.048463,0.40546,0.6607,-2.5019,-0.84422,-0.84406,0.27812,1.3236,0.53303,0.45668,0.4566,1.4258,0.074087,0.35476,-0.28301,-1.2013,-0.97163,-1.0224,0.96702,-0.25763,0.60962,-0.15567,-0.61474,-2.0176,-0.61467,-0.10447,2.0891,1.0944,0.71182,-0.35958,-0.5893,-1.2777,-1.9152,0.45656,0.60958,0.53312,1.0178,0.91581,0.76264,-0.33406,-0.71646,1.8597,-0.86977,0.20146,0.32907,-1.1755,-0.71667,-1.0228,0.43107,0.35461,0.66074,0.12506,-1.4818,-0.53806,-0.30851,0.35464,0.48209,0.022876,1.4769,-0.69107,0.68632,1.0943,-0.38483,-0.28298,0.8136,-1.9413,1.3748,0.83924,-1.0991,-1.4308,-0.35958,-1.992,-0.079051,3.9002,0.83927,-0.76761,-0.76759,-0.2575,-0.56368,-0.61465,0.09973,3.0328,0.45673,-2.5274,-2.1703,0.63506,0.94097,1.6807,1.2217,0.96668,-1.5327,-1.5327,-0.99728,2.4718,0.17617,-0.53795,-1.1247,0.048445,-0.43623,0.30358,0.60971,0.50774,-2.0684,-0.79308,1.8851,0.27804,-1.2779,0.43107,1.681,0.86474,-0.79325,-0.078996,0.73725,-2.196,-1.9918,2.6504,0.81385,1.0177,0.022913,-0.41071,-1.2269,-1.0483,-0.25756,0.32915,1.1709,-1.3031,-1.0225,-0.20655,0.68602,0.40551,0.63515,0.20151,0.43111,0.20156,1.1198,0.81368,-2.5276,-2.2976,-1.1757,2.4207,0.30365,1.2472,-0.3597
-0.23203,0.099552,-0.078966,0.074057,0.12507,-0.12999,-0.027974,-0.078984,0.023059,0.20158,-0.10448,-0.027974,-0.20653,-0.18101,0.15057,0.30364,-0.027969,-0.18101,-0.181,-0.1045,-0.15551,0.023059,0.53318,-0.002454,0.074038,-0.181,-0.002485,-0.15551,0.099559,-0.027974,0.099564,0.048531,-0.23202,0.09954,0.074057,0.074062,0.12506,-0.002454,0.048543,-0.07899,-0.078972,-0.1045,-0.10448,0.12505,-0.078984,-0.053482,-0.027974,-0.181,0.023017,-0.02798,0.5332,0.27812,-0.23203,-0.33406,-0.20655,-0.1045,-0.07899,-0.002479,-0.13,0.023047,0.2526,-0.002454,0.12507,0.12505,-0.10448,0.048555,0.023047,-0.10449,0.12505,-0.07899,-0.078984,0.074038,-0.12998,0.048536,0.048543,-0.23202,-0.002485,-0.002467,-0.053464,0.25259,-0.23202,0.27812,0.20158,-0.30854,0.099564,0.73724,-0.1045,-0.38509,-0.13002,-0.23204,-0.027974,0.17607,0.074051,0.023035,0.22708,-0.027962,0.20158,0.17609,-0.027969,0.15057,-0.23202,-0.13,-0.07899,-0.1045,0.099546,-0.078977,-0.027969,0.074044,-0.027962,-0.053482,-0.02798,-0.027969,-0.078966,-0.07899,-0.078996,-0.053495,0.27812,0.48219,-0.002467,-0.30855,-0.30855,-0.20652,0.15057,0.074057,-0.053495,-0.002467,-0.10449,-0.12999,0.048536,0.048555,0.023047,0.074038,0.15056,0.099564,-0.23202,-0.002467,0.15056,0.12508,0.074057,-0.13002,-0.1045,-0.28305,0.15059,0.15057,-0.181,0.27812,-0.027993,-0.20652,-0.053476,-0.002472,-0.002467,-0.053488,-0.30855,0.43117,0.2016,0.099564,0.2526,-0.181,-0.25754,0.048525,-0.002454,-0.053482,0.074038,0.048549,-0.078972,-0.078984,-0.027969,-0.078972,0.074062,-0.027987,-0.07899,0.074062,-0.078977,-0.18102,0.023023,0.074075,-0.02798,-0.002491,0.023047,-0.002448,0.023041,0.12506,-0.13,0.17609,0.09957,-0.07899,-0.002479,-0.23202,-0.28305,-0.1045,-0.002454,0.25263,0.50769,0.20159,-0.28303,-0.5126,-0.30856,0.023029,0.32913,-0.027969,-0.13002,0.048531,0.048549,0.048561,-0.002479,-0.027987,0.048555,0.22712,0.32913,0.048531,-0.1045,-0.35956,-0.28305,-0.10452,-0.1555,-0.053464,-0.002467,0.048549,0.40564,-0.053458,0.048549,-0.053476,0.20158,0.048543,-0.15549,-0.10449,-0.10451,-0.1045,0.20161,-0.053482,-0.027993,0.15059,-0.027962,-0.18104,-0.1045,0.074075,0.074051,-0.0535,-0.053482,0.048567,0.15059,0.074057,-0.027956,-0.07899,-0.053495,-0.027987,-0.002461,-0.05347,-0.053476,0.099552,0.048555,-0.20651,0.099564,0.22708,-0.12999,0.2781,-0.13,-0.12999,-0.002479,-0.12999,0.023047,-0.25755,-0.28303,0.60973,0.45666,-0.07899,-0.48711,-0.18104,-0.23201,-0.002467,0.15056,0.09957,0.074057,0.09954,-0.027969,-0.053458,0.099564,-0.0535,0.023059,0.20161,-0.053482,-0.10451,-0.1555,-0.027969,0.023029,0.074044,-0.002461,-0.23202,-0.13001,-0.18103,0.48216,0.074062,-0.18101,-0.07899,0.55869,-0.10449,-0.38506,-0.13001,0.15056,0.30363,-0.13,-0.28303,-0.07899,-0.002485,-0.027956,0.023041,0.12505,0.099552,0.17609,0.1506,-0.02798,0.023029,0.15056,-0.13,-0.18101,-0.07899,-0.002485,-0.053476,-0.28303,-0.079008,0.58422,0.27814,-0.10451,-0.25754,-0.23202,0.023023,-0.12999,-0.053476,0.048549,0.22712,0.2781,0.12507,-0.12999,-0.053476,0.15055,-0.053476,-0.18103,-0.1045,-0.002479,0.099577,0.20158,-0.28303,0.074051,0.43115,-0.10448,0.074057,-0.1045,-0.23203,-0.15553,-0.15551,-0.15551,-0.181,0.20159,0.38016,0.099552,0.023059,-0.053495,-0.078996,-0.13001,0.023029,0.15059,-0.002479,-0.002454,0.074038,0.17609,0.38014,-0.027974,-0.18102,-0.30856,-0.12999,0.023023,-0.13001,0.17609,0.048555,0.20161,-0.027987,-0.15551,0.50769,-0.079002,-0.18101,-0.053488,-0.18101,-0.078972,-0.002472,-0.002454,0.30363,-0.078984,-0.053476,-0.002485,-0.15551,0.32913,-0.002485,-0.181,0.099552,-0.35957,0.023035,0.48216,-0.053464,0.32914,0.074044,-0.25753,-0.15551,-0.078996,0.048549,0.023023,-0.053458,0.22708,0.048555,-0.13001,0.023035,0.074075,-0.053482,-0.18104,-0.02798,1.2474,0.09957,-0.18103,-0.43609,-0.43609,-0.38508,-0.13001,0.074051,0.12507,0.023023,0.023047,0.22712,-0.002467,-0.027969,0.048531,-0.23202,0.099564,0.66072,-0.079002,-0.23204,0.048536,-0.053488,0.023029,-0.15551,-0.13001,0.20159,0.20158,-0.078984,-0.181,0.048536,0.2271,-0.10449,-0.13002,-0.1045,-0.18101,0.099546,0.38016,0.12509,-0.027993,-0.35956,0.20159,0.15058,-0.181,-0.1045,-0.079008,-0.181,-0.027974,0.074051,-0.10448,0.048555,0.43117,-0.027962,-0.027993,-0.13001,0.048549,-0.078972,0.023041,0.023029,-0.13,-0.078984,-0.053476,0.099559,0.074038,-0.002467,0.09957,0.074069,0.023035,-0.053495,-0.078996,-0.25753,-0.30855,0.20157,0.5332,1.1964,-0.25754,-0.41061,-0.41058,-0.30856,-0.20654,-0.002467,0.048543,0.023059,0.19971,0.1742,0.0977,0.1487,0.17607,0.048561,0.048536,0.099564,-0.20653,0.074038,0.25262,-0.053482,0.2526,-0.027956,-0.15551,-0.002472,-0.30854,-0.13002,-0.10447,-0.1045,0.074038,0.048561,-0.053482,0.099546,0.20159,-0.078977,0.099546,-0.002454,0.09957,0.074038,0.023041,0.048561,-0.10449,-0.10451,-0.053482,-0.15549,-0.002467,0.30361,-0.079008,-0.23202,-0.053476,0.27811,0.17609,-0.18101,-0.1045,-0.1045,-0.053458,0.023041,0.074038,0.023054,0.023041,-0.002479,-0.002461,-0.002443,0.15058,-0.13002,-0.027974,0.099564,-0.02798,-0.053495,0.074062,0.048561,0.048549,-0.18102,-0.1045,-0.027956,0.048536,-0.07899,0.023054,-0.027969,-0.002479,0.023054,0.023041,-0.1045,-0.078972,0.27811,0.20158,-0.002454,-0.13,-0.10451,-0.15549,-0.002467,0.023029,-0.027969,-0.02798,-0.027969,0.048567,0.048536,0.048561,-0.027974,0.17609,0.099559,-0.18103,-0.053464,-0.053482,-0.002491,-0.10448,0.22711,-0.079002,-0.13,0.12507,-0.13002,-0.13001,-0.181,-0.053482,0.17607,0.048567,0.048549,0.15056,0.023035,-0.002461,0.074044,-0.002472,0.12507,0.048536,0.099559,0.048561,-0.0535,-0.027974,0.023035,-0.053482,-0.078996,-0.10448,-0.002467,0.023029,0.099559,-0.027969,0.074051,0.023059,-0.027969,0.099546,-0.027969,-0.078972,-0.15553,-0.13001,0.15059,0.35464,0.27813,-0.4106,0.2016,0.71176,0.17609,-0.64015,-0.7422,-0.56364,-0.1045,0.074033,0.35465,-0.15549,-0.71668,-0.2065,0.20159,2.4718,0.96683,-0.002491,-0.74225,-1.4053,0.32918,1.7576,-0.43609,-1.1504,-1.941,-1.9155,-0.18111,1.0687,0.81371,-1.5583,3.3903,5.8898,2.5482,-2.9615,-3.1909,-3.3183,-4.2366,-1.1754,-0.51243,1.8083,1.6806,4.9967,1.094,-3.5993,0.35459,7.6754,2.3955,0.78879,-2.476,-6.4048,-5.4355,1.094,1.8849,-3.5478,-1.7369,4.2314,6.3739,-1.3036,1.7067,-7.4757,-1.1761,7.3692,5.2017,-1.4565,-1.1501,-3.854,-2.2477,0.17556,0.022913,-1.966,-1.15,1.6807,-2.91,4.5124,2.5482,1.6812,0.68629,2.446,-5.5123,-1.0984,5.4569,0.099185,0.8387,-2.0693,-2.1456,-2.9361,0.22714,0.73744,-1.8131,-3.4203,3.773,5.6862,-1.3796,0.12491,-1.3547,-0.79354,-1.0231,0.53293,-2.4002,0.22775,6.4767,4.2318,-1.4565,-3.1909,-2.8594,-2.0687,-1.839,2.089,0.073928,-0.30861,0.25273,-2.5786,1.222,3.7472,3.39,-0.71672,1.9872,-1.5328,-3.0889,-0.81872,-1.9156,-1.8901,0.125,-0.8186,8.5428,-0.25736,-1.5586,0.71148,-1.5073,-4.3131,-4.5682,3.9001,2.5224,0.58402,-1.1497,-0.002167,0.96655,0.45644,1.3747,0.12491,0.17607,0.68625,-0.46158,-1.2777,-1.6093,-0.71659,1.1964,0.20169,0.71193,-2.9868,-1.3799,0.81364,3.0838,4.5378,-1.2524,-2.2982,-0.53815,-2.247,2.5995,-2.0431,-1.3035,-0.51271,2.5226,1.0432,-1.2266,-1.6092,2.37,3.4668,-1.3033,-0.23227,-0.3853,-2.043,-1.0482,-0.76791,0.60966,2.3953,3.6451,-1.0992,-0.71668,-0.94625,-1.4054,0.22707,-0.48703,-2.1449,-0.58918,5.4562,-0.71665,1.9361,-1.0993,-0.38523,-1.2013,-3.4712,-1.6351,-0.56376,3.0584,0.63525,2.9819,0.68622,-0.079106,-0.20665,-2.6298,-3.7009,1.8344,6.1196,1.2728,-0.74247,-1.6097,-2.1453,-3.7262,-0.25763,0.12499,0.30356,0.58424,0.50767,0.73747,-0.002271,2.0889,0.68608,-0.28313,-3.0124,4.1554,3.6963,-2.7825,-1.5075,-1.2525,-0.97191,-0.94637,-0.028042,1.7066,-0.25751,-0.38502,0.43121,-0.64011,0.99237,-0.43612,3.7472,1.1453,-0.20658,-3.1653,-2.4766,-0.53811,-1.788,1.0944,3.3135,2.5735,0.30328,-1.329,-4.1345,1.299,-0.56336,-1.3799,2.8287,-0.30882,2.14,1.5534,-1.3034,-1.1759,-1.1758,-0.58896,-1.7112,1.579,-0.53807,0.3801,-1.2269,2.8289,-0.053525,-0.66565,0.27834,0.074062,0.12499,1.2218,-0.028103,0.99212,-2.1706,-0.4615,0.96694,0.43122,-0.64011,1.0178,0.76248,-0.81872,-0.13004,-0.33402,-1.4815,-1.6605,-0.6657,2.3189,1.7065,-0.58938,1.1197,1.0942,-0.43606,-1.1758,0.15057,-1.9665,-0.48706,1.2986,-0.43585,-1.533,1.2729,0.45661,-0.13013,0.50757,0.073946,1.2728,-0.53809,-1.201,-1.3287,1.0179,-1.2525,1.6299,-0.053549,-0.94617,1.2474,-0.10452,1.5024,-0.002479,-1.2523,-0.078984,0.76278,-0.41069,-0.7167,-1.5327,-0.63975,-0.23181,0.76263,0.83905,1.1451,1.2217,0.20154,0.023005,-0.28303,1.6555,-1.2265,0.60987,-0.002461,-1.4818,-2.0175,-0.30863,-0.23218,0.15045,2.0891,1.9105,0.12509,-0.12992,-1.3033,-1.7879,0.55886,1.273,1.0942,-0.51273,0.023035,0.099552,-0.6402,0.25254,-0.079008,0.20162,-1.2266,-0.41047,-0.30853,0.68615,-0.58931,1.834,2.0126,0.94125,-1.1504,-1.2266,-2.2468,-1.1248,-0.81881,0.66064,1.5278,1.1198,0.27803,-0.25757,0.048525,0.09957,-0.7166,-1.1502,0.40593,0.71197,1.0178,-0.20674,0.35442,0.20153,-0.97164,-0.43585,-1.15,-2.1449,1.2471,3.4151,1.2982,0.17595,-1.1504,-1.1758,-0.43608,-0.7931,-0.053311,-0.33372,-0.8186,2.6248,-0.94627,0.71172,1.3494,-1.3289,-0.66577,-0.58924,-0.84417,-0.35949,-0.10449,0.20158,2.8033,1.477,-0.74231,0.38009,-0.64006,-0.81889,0.38024,-0.33396,0.94151,0.27827,-1.4054,-1.176,0.22682,0.38012,-0.10452,-0.43616,-0.86972,-0.51255,1.222,2.1657,-0.25754,0.22715,-1.3033,-0.89495,2.6758,-1.329,0.40564,0.58422,-1.3289,0.9922,-0.028011,-1.0484,0.099564,0.7376,-2.604,1.8596,0.63512,0.17583,0.4564,0.048487,-1.7111,1.4005,0.76288,-0.46159,-0.6147,2.2931,-0.35966,-1.7625,0.27817,0.074057,0.63526,-0.20652,2.2933,0.38023,-2.3747,-1.5075,-0.10453,-0.53802,-0.25747,-0.027993,0.20145,-0.51271,0.63514,4.4868,3.9767,-1.4819,-2.2214,-0.53814,-0.5382,-0.84424,-0.66567,-0.81878,0.20161,1.0943,1.1454,-0.15549,-0.33413,0.25254,1.2218,-1.2266,-1.0225,-0.61469,-0.74226,-0.079033,1.4258,0.94139,0.20167,-0.15563,-0.53816,-1.2268,0.099577,-0.9462,-0.38498,0.38017,-0.61484,2.3441,1.4004,-0.89524,-1.2013,-1.1502,-0.15543,0.53323,-1.4308,0.38024,1.0433,0.53317,-0.33416,0.12498,0.48217,0.20156,-0.58913,-1.1248,-0.86964,-0.92068,2.2676,1.1453,0.48216,0.63532,-1.3287,-2.1449,0.048487,0.6605,0.25252,0.71174,-1.0227,-0.46162,1.4769,-0.13011,-0.18108,-0.76758,-0.51252,0.43115,-0.053544,-1.0229,1.7319,2.8799,0.9418,-3.1138,-1.8133,-1.3036,0.73691,0.17575,0.63498,0.35458,0.4312,0.12508,-0.05339,-1.0737,-0.436,1.8852,-1.0993,0.3802,0.32923,0.074057,-0.23208,-0.6658,0.43117,-0.84417,-1.1758,-0.86966,-0.92074,2.1656,1.6554,-0.43604,-0.48711,-0.56366,0.25245,0.15057,-0.33392,0.40566,-0.002454,-0.35953,-1.3796,2.5994,0.68603,0.15043,-0.23215,-0.33406,0.023029,-0.079045,-1.4309,0.7118,0.15078,-0.53795,-0.46162,-1.0738,-0.56358,0.60965,-0.0791,-0.079033,2.2676,3.237,-0.89516,-1.0992,-0.84423,-0.35963,-0.51265,-0.56369,0.66067,0.35471,0.27821,-0.002516,-0.3341,0.25266,-0.053402,-0.10452,0.32904,1.0688,0.15057,-1.0738,-2.1706,1.6046,0.81366,1.8597,-0.25758,-1.1758,-1.6602,-1.788,0.30355,1.5788,-0.79335,0.68613,2.3698,0.27826,-0.28312,-1.4054,0.25257,-0.20652,-0.51258,-0.10446,-0.74201,1.2221,0.3036,-0.079063,1.5789,-0.079051,-1.4053,-1.1503,-0.13002,-0.28307,-0.20655,-0.41059,0.89029,0.63518,1.2474,-0.89523,0.89037,-0.71648,-1.4052,-0.053519,-0.46183,-1.4564,2.0636,1.9106,0.83904,0.63506,0.023145,-1.7879,-1.7624,-1.1248,-0.97179,2.4207,1.732,-0.436,-1.941,-0.002394,-0.23204,0.55864,1.1454,-0.13001,-0.53823,-0.61451,2.7016,1.6045,-0.56378,-1.176,-1.3034,-1.1758,-0.15553,0.17617,0.20159,0.3547,0.25254,0.30358,-0.15552,-0.00243,0.40566,0.40565,2.3952,-0.027925,0.38006,-1.8134,-2.196,-1.1503,0.63514,1.7574,-0.15534,-1.5071,-0.5128,1.2983,0.099399,0.17592,0.55859,3.2625,0.81376,-0.43588,-1.2012,-2.0941,-0.86972,-1.6351,-0.99727,0.78835,1.426,0.89032,0.07402,-0.07899,-0.53806,-0.079002,-0.35963,-0.002485,-0.6401,1.324,0.68621,-0.71674,0.48206,1.2729,0.94138,-1.1758,-0.53817,-0.23206,-2.0176,0.32914,-0.94627,-0.97177,2.5738,-1.2267,0.27834,0.12504,0.12497,0.9922,0.15052,-0.43606,-0.35935,-1.7366,0.073904,1.4002,-0.30877,3.4409,0.94122,-0.20653,-1.3033,-1.6604,-1.5073,2.1147,-0.58904,-2.2469,-0.89518,0.71165,2.4716,1.8851,-1.2267,-0.89524,-1.1249,-0.23218,1.3492,0.074057,-1.4818,-1.5582,1.2731,-0.028042,0.22697,2.0636,0.96681,-0.86972,-0.76766,-0.35964,-1.4055,-0.61463,1.3495,0.40579,-1.9663,0.30356,0.50754,0.55863,0.25251,-0.76771,-1.1757,-1.6094,4.9969,1.6045,0.60973,-1.5075,-1.4818,-1.0738,-1.6349,2.0127,-1.8645,0.099552,1.8341,0.81385,-1.1247,0.43113,1.0687,-0.079112,-0.64028,-1.686,1.375,1.1964,-0.23203,-0.079051,0.22703,-0.94612,-0.38491,0.45654,0.099436,-0.58908,-0.66558,-0.51263,0.71174,1.7576,0.45664,-0.58925,-0.053616,0.22709,0.32926,-0.8442,-0.66563,0.50766,-0.25748,-1.2778,0.40565,1.4259,-0.2321,-0.51249,-0.436,0.074051,0.073959,3.5685,-0.15559,-1.6605,0.023005,0.099546,-0.28308,-0.74214,-0.43608,-0.84422,-0.078898,1.1964,-0.15551,0.71193,1.2731,-0.4872,-0.79345,-0.28328,1.4004,0.53317,-0.053476,-0.74214,-0.56358,-0.84407,-0.33404,0.40564,0.86472,2.1147,-0.35964,-0.28305,-1.0992,-0.41058,-0.20644,-1.7113,0.022919,1.987,0.53311,0.30355,-0.053544,-0.81871,1.4005,1.1964,-0.35953,-0.74203,-1.6348,-0.81878,0.63516,3.9767,-0.41057,-0.97179,-1.0482,-0.58921,-0.94631,-0.56364,0.60973,0.6353,0.43108,-0.20653,-0.33404,0.074051,-1.0993,1.6046,3.3903,-0.35936,-0.92083,-0.97193,-0.079246,-1.023,0.71165,1.6811,-1.2776,-0.84417,-1.1757,-0.81866,0.27803,0.50761,0.50759,0.25256,1.7065,-0.30855,0.023114,2.2423,-0.99725,-1.1503,-1.3544,-0.64006,0.40567,1.0689,0.53314,0.176,-0.18109,0.073971,0.17609,-0.33408,-0.84419,0.30355,-0.053237,0.71199,0.55867,-0.43618,-1.1249,0.83923,1.2473,0.38001,0.22704,-0.002558,-1.0481,-1.0227,0.81375,0.89023,0.17623,-0.997,-1.8644,0.25246,1.1452,0.40555,0.02295,-0.13007,0.048518,-0.58911,-1.0226,-0.28298,1.0689,1.7066,-1.0483,0.3291,-0.10455,0.048506,-0.15554,0.22714,-0.12988,-0.7167,-0.33411,0.048525,0.63521,0.17611,0.17598,0.55877,0.35465,-2.1195,-2.298,0.43102,2.7267,2.9819,0.048494,-1.5074,-0.079148,-1.2267,-1.3797,-1.2013,-0.97162,0.43113,1.5023,2.2422,0.30363,-0.43621,-0.181,0.17606,0.20164,-0.10442,-1.6349,-1.0737,-0.53817,2.8798,1.0433,1.1709,-1.3543,-1.6349,-0.76766,-0.66567,-0.8442,-0.41056,0.25264,0.73714,2.1401,1.63,-0.76769,-0.71646,-1.2522,-0.38519,-0.43623,-0.38524,0.86464,-0.66569,1.2221,-0.66539,1.2474,0.55858,-0.43623,-0.41063,-0.35954,-0.71668,-0.48706,0.4567,-0.10451,0.71167,0.32909,0.22729,-1.3287,0.60957,-0.028042,-0.079026,1.732,0.32909,0.099546,-1.635,0.099577,0.63528,-0.84417,-1.2523,-0.28308,-0.23196,0.099595,0.099491,1.0178,1.0689,1.8087,-0.99712,-0.69132,-1.0229,-0.028029,0.40558,0.0485,0.20159,0.17604,0.17617,-0.94612,-0.64006,1.5537,2.2677,-0.64022,-1.4054,-1.2523,0.1506,-0.89528,0.22699,1.5279,-0.28308,-1.1757,-0.35944,0.55866,0.94119,1.0433,0.22705,-0.69116,-0.10447,-0.38506,0.60971,-1.2012,-0.46148,-0.58909,1.0178,1.4769,-0.28304,0.099583,-1.0737,-0.76767,0.78818,0.43107,0.35457,-0.43603,-0.027938,-0.13007,0.45664,-0.10444,-0.99721,-0.18093,0.73732,-0.15558,0.073959,1.0689,-0.25744,-0.97177,-0.61469,1.7575,-0.53815,-0.38511,1.1454,-0.078996,-0.48711,0.048561,-0.71668,-0.25746,-0.97169,-1.1248,0.38008,1.0178,-0.25763,1.4003,1.0178,-0.58914,-0.078825,-0.66539,0.48206,0.099461,0.38008,0.89021,-0.20666,-0.078935,-0.58898,-1.2012,-0.18106,-0.33425,0.30366,1.5791,-0.71646,-0.99716,-0.13016,0.7625,0.6606,-0.10452,0.048555,-0.43612,1.4259,-0.41044,-0.56351,-0.79316,1.8341,-0.33408,-0.028005,-0.38513,-1.5584,0.58424,2.3187,-0.38508,-2.196,-0.20642,0.32907,0.099412,-0.41062,-0.002485,0.27805,-0.002443,-0.079021,1.681,1.1711,-0.61462,-0.00254,0.68619,-1.0738,-0.92071,-0.43609,-0.43601,-0.053372,0.99227,0.17607,-0.30863,-1.2012,0.94138,1.6808,-0.33411,-0.6911,-0.97175,0.022998,0.0485,0.35459,0.3036,0.6352,-0.38513,0.048561,0.32918,0.35467,-0.79305,-0.56347,-0.28307,0.25248,-0.51263,-0.25757,-0.48714,0.63527,1.8596,0.53333,-1.4307,-0.66578,-0.53829,-0.002656,0.89012,0.48215,-1.9155,0.71186,1.4261,0.76278,-0.079026,-0.74217,-1.1246,-0.25751,-0.13001,-0.86964,1.0688,0.17595,1.3494,-0.13002,-1.3034,-0.053537,1.1963,-0.30855,-0.25745,-0.41049,-0.74211,0.9413,0.073989,-0.027993,-0.18106,0.20153,-0.53798,0.45682,-0.51262,-0.64024,-0.61443,0.76265,0.25246,0.1504,1.1708,0.55869,-0.58915,-0.58908,-0.48705,-0.25748,-0.43601,-0.28299,0.22717,0.45675,0.60972,-0.13012,-0.48722,1.2473,0.58416,-1.992,0.63532,1.528,-0.1555,-0.89527,-0.20658,-0.61465,-0.38514,-0.053519,-0.56358,-0.38504,0.68627,0.99237,1.0178,-0.30854,0.55865,0.71171,-0.92073,-0.94627,-0.41054,-0.33406,-0.1044,1.0178,0.023005,0.68621,-0.28308,-0.81871,-0.43606,-0.23197,1.3494,-0.46154,-0.71663,0.7372,-0.002528,0.074026,0.17614,-0.53795,-0.74218,0.22704,-0.002601,0.78825,1.4004,0.27817,-0.38517,-1.3289,-1.6858,-0.41055,0.60968,0.023035,-0.002558,2.1146,0.55867,1.2729,-0.002448,-0.89522,-0.35951,-0.69117,-2.1196,-0.5637,3.1349,2.2168,-1.3288,-2.5274,-0.94631,0.20144,0.60954,0.30347,0.25251,0.45665,0.38014,0.89034,-0.94618,0.43124,0.83939,-0.28305,0.55867,-0.86967,-1.6093,-0.12994,-0.23209,-1.1759,1.4513,1.1707,0.25257,-0.38499,-0.66556,-0.69112,0.94128,0.83919,0.5331,-0.002534,0.074062,-0.84407,-1.4053,-0.053549,0.96679,-0.3339,-0.35945,0.50768,0.43106,0.12496,-0.028036,-0.20662,-0.69111,-0.56365,0.048708,0.48242,-0.20636,0.20147,0.86454,1.1451,0.32899,-0.25761,-0.71666,-0.05336,-0.28291,-0.9462,-0.89518,-0.078959,2.6758,-0.64016,-0.28308,-0.79318,-0.053488,0.15054,-0.00243,0.099583,-0.33398,-0.23197,0.68611,0.99217,-0.028023,0.329,0.96679,-0.20651,-0.56361,0.17614,-0.12999,-1.4817,-0.71643,1.7574,-0.3087,0.50752,-1.2523,-1.2009,-0.46139,-0.30864,0.9156,0.53298,0.25245,0.89019,0.68621,0.099619,-0.69109,-1.0991,-0.38496,1.1709,0.89022,-0.9462,-0.69105,0.1506,0.048536,-0.20647,-0.079026,-0.46171,0.58412,-0.002607,-0.51265,0.17603,-0.053372,0.25264,-0.30843,-0.53806,-0.053513,2.1146,1.2984,-0.46147,-0.53799,-0.66571,-0.18124,0.55851,-0.13017,-0.94594,-2.2721,1.1198,0.35448,1.3238,-0.51279,0.45659,-0.3086,0.32915,-0.053464,0.48227,-1.1756,-1.0226,-0.002546,0.50757,0.35456,0.15056,-0.46159,-0.15555,-0.13004,1.3239,0.048567,-0.10447,0.074062,1.1454,-0.18098,-1.5074,-1.533,0.32923,0.73726,-0.28312,0.32902,0.32907,-0.589,-0.436,0.074197,-0.2065,0.63518,0.83911,0.99214,-0.079088,-0.3596,0.12508,-0.15551,-0.23199,-1.2522,-0.74187,-0.89503,0.38006,0.83915,0.20147,1.2218,1.7575,-0.078843,-0.58916,-1.1758,-0.58919,-0.053573,-0.58908,-0.23197,-0.027895,0.73732,1.3494,-0.2831,-0.41068,0.30356,0.3291,-0.25759,0.76279,-0.20649,0.22717,-0.41053,-0.38507,-0.1045,-0.1555,0.38016,0.073922,-1.2013,-0.81847,-0.30849,2.4972,0.50759,-0.20652,-0.64017,-0.079142,-0.23213,0.25258,-0.25759,0.17612,-0.25744,-1.0481,0.73728,0.76278,0.27806,-0.6657,1.0688,-0.84425,-0.41062,0.50768,1.1964,-1.0226,-1.8133,0.048506,1.5534,0.176,-0.20663,-0.33415,-0.027987,-0.61462,-0.027925,0.15056,0.12511,1.0944,0.63528,0.99246,-0.28307,-0.76772,-0.97182,-0.4872,-0.079063,-0.20661,-0.20653,-0.25739,-0.38486,0.3292,0.40559,0.81367,-0.58908,-0.053476,0.60965,1.2473,-0.4362,-0.41066,-0.25754,0.27811,-0.20638,-0.61449,-0.20647,-0.64019,-0.079039,1.0688,2.2676,0.55857,-0.5634,-2.0937,-1.7877,0.17601,0.48192,0.099363,0.60962,0.15052,0.43117,0.43117,-0.61462,0.048561,0.12509,0.40568,-0.74217,-0.079014,-0.23204,0.074081,0.48228,-0.46154,0.78825,-0.56367,0.76276,-1.2268,-0.35954,0.02298,-0.28308,-0.46165,0.074033,0.38018,0.40561,0.099564,0.17614,0.50766,0.55876,-0.487,-0.002423,-0.30862,-0.46164,0.68617,0.048458,0.48218,-0.64005,-0.71666,-0.7932,-1.1247,0.15057,0.83932,1.12,0.43104,0.12489,-0.28319,-0.38513,-0.53812,0.48223,-0.12999,1.0179,0.20174,-0.33396,-1.0991,0.50776,-0.33412,0.38006,0.099466,-0.79324,-0.46167,-0.64018,0.7118,0.48214,-0.2065,-0.79312,0.94126,1.6299,-0.181,-0.053378,-0.79299,-0.5636,-0.86975,0.60954,0.89014,0.94117,0.38025,-0.66553,-1.0738,-0.79316,0.43116,0.35456,0.43113,0.35458,0.17603,-1.7112,0.43126,1.2219,-0.33413,-0.1556,0.073965,-0.10453,0.35465,-0.79314,-0.4361,1.0179,-0.41055,-0.2065,-0.15554,0.45666,0.94131,-0.35956,-0.33407,-0.15551,0.55869,-0.28306,-0.74215,1.0178,0.66075,-1.1759,-1.6093,0.35498,-0.41056,0.099485,0.43096,1.0686,0.45649,1.0432,0.55866,-0.23198,-0.436,-0.30847,0.1252,-0.99701,-0.79294,0.099564,-0.002583,-0.10464,0.86467,0.53309,0.25257,-0.10455,-0.35961,-0.078941,-0.07891,-0.66563,-0.02795,-0.053506,0.48211,1.2474,0.96692,-1.4307,-1.4563,-1.2524,0.073868,0.32904,1.1708,-0.30843,0.55874,0.73722,-0.028114,-0.10462,-0.58913,-1.5836,0.30369,0.7117,0.099424,0.86471,0.73715,-0.18099,0.20163,-0.61459,-0.71663,-1.3798,-0.33408,0.83923,-0.18103,0.25263,-0.15539,0.12505,-0.35959,0.15049,1.0943,1.0688,-0.23204,-1.4053,-0.15542,0.35472,-0.6146,0.58407,0.099528,-1.0483,1.7064,1.2729,0.7883,-1.5583,-1.1247,-0.51266,0.20153,-0.30862,-0.0535,0.048549,0.76276,0.20167,-0.92052,-0.181,0.43111,0.048494,0.073984,0.86472,0.099546,1.3239,-0.71659,0.023188,0.12489,-0.33408,-0.53804,0.12508,-0.92078,-0.76776,0.30354,0.76264,0.89027,0.30369,-0.053402,-0.43593,-0.58914,-0.25761,0.22714,-0.35953,-0.30856,0.30364,-0.43613,0.099564,0.3291,0.48216,0.023121,0.96681,-0.15562,0.99225,0.40558,-0.76761,-1.6348,-0.99716,0.78823,0.278,0.96677,0.53318,-0.18103,-0.10449,-0.8442,-0.48706,0.45679,-1.3288,-0.027907,0.35468,0.7627,0.6351,0.15054,-0.41058,-0.25762,-0.10461,-0.10458,0.17609,0.78824,0.15061,-1.0736,-1.3287,0.35467,0.2016,0.53312,0.53311,0.32902
