-0.0535,0.023023,0.048531,-0.1045,0.048536,0.27811,0.38016,-0.10449,-0.07899,-0.10452,-0.15548,-0.25754,0.25263,-0.25757,0.35466,-0.053476,-0.13,-0.002448,0.048531,-0.027974,-0.002448,0.048536,-0.002448,-0.079008,0.048567,0.074038,0.023054,0.023035,-0.10447,0.074033,-0.078984,-0.10449,-0.002461,0.023035,0.12505,-0.10447,0.074033,0.2016,-0.053482,-0.05347,-0.053482,0.023023,-0.078977,-0.10449,0.099546,0.099564,0.023035,-0.053446,-0.18101,-0.027974,-0.15551,0.27812,0.20161,-0.053513,-0.13002,-0.30852,-0.07899,-0.078984,-0.0535,0.66074,0.35461,-0.41058,-0.53814,-0.10447,0.074062,0.074044,0.2271,0.17607,-0.23201,-0.20652,0.023035,-0.13001,-0.05347,0.099552,-0.002461,0.15056,0.048555,-0.053488,0.074051,-0.13,0.023047,-0.1045,-0.002467,-0.027969,0.023023,0.074069,-0.078984,0.12509,-0.12999,0.023054,-0.15551,-0.02798,-0.18101,-0.15551,0.48217,0.20158,-0.1555,-0.002485,-0.1045,0.074044,-0.027962,-0.15551,-0.18099,-0.053495,0.20158,0.89028,-0.25752,-0.15553,-0.25754,-0.35957,0.12507,0.22708,0.12504,-0.053464,-0.027956,-0.027962,0.023054,-0.002436,0.023035,0.023035,0.023017,-0.12998,-0.1555,0.023035,0.048536,-0.027969,0.12504,-0.002467,-0.002461,0.048555,-0.053476,0.09957,-0.23204,0.32913,-0.1045,-0.12998,-0.053488,0.15057,-0.053488,0.023041,-0.181,0.048555,-0.20654,1.1199,-0.3851,-0.30856,0.63523,-0.15551,-0.053495,-0.2575,-0.07899,-0.053476,-0.002472,-0.079021,0.20161,-0.027969,0.12507,0.15054,-0.027987,0.048543,-0.053495,0.023035,-0.053495,-0.053464,0.048536,-0.078966,0.074051,-0.027969,-0.027974,0.20157,-0.002479,-0.23203,-0.053488,0.30363,0.38016,-0.25754,-0.18102,-0.10449,0.074038,-0.181,-0.13,-0.053476,-0.027993,0.76274,0.12505,-0.33404,-0.002491,-0.053464,-0.30854,-0.12998,-0.027993,0.048543,0.023023,0.074057,-0.1045,0.12508,-0.002443,-0.002472,-0.053451,0.12505,-0.10449,-0.027974,0.023023,-0.002461,-0.027987,0.074062,0.023047,0.023041,0.023035,0.099546,-0.13,-0.12999,-0.02798,0.023041,0.099546,0.32914,-0.028005,-0.18101,-0.12999,-0.20652,-0.18101,1.2219,-0.027969,-0.20655,-0.38506,-0.053488,-0.1555,0.048543,0.25264,-0.027987,-0.053482,-0.053506,-0.002454,0.099546,-0.053464,-0.027969,-0.12998,0.074044,-0.07899,-0.027962,0.15055,-0.053482,-0.12996,-0.1045,0.25258,-0.053476,0.09954,-0.078972,-0.078996,0.09957,-0.053476,-0.1045,-0.15551,-0.053451,0.48218,-0.25754,-0.027993,-0.053482,-0.13002,-0.027956,-0.002485,-0.15552,0.91582,-0.28304,-0.53812,-0.33407,0.32912,0.30363,-0.13001,-0.18102,-0.23202,-0.053488,-0.12999,-0.053488,-0.002467,0.1506,0.023035,0.048536,0.074044,0.15056,-0.002454,-0.053495,0.023054,-0.0535,0.048555,-0.078977,0.12508,0.20158,0.048536,0.023035,-0.002467,-0.18101,0.099552,-0.027962,-0.13002,0.32913,-0.078996,0.023047,-0.15548,-0.053488,0.074026,-0.18099,-0.027974,0.2781,-0.078984,-0.43613,0.68626,-0.002479,-0.23201,-0.18102,-0.10448,-0.15553,-0.20652,0.45667,-0.078977,0.099564,-0.10449,-0.10451,-0.078977,-0.002485,0.099577,-0.027969,-0.002472,-0.078972,0.023029,0.048543,0.023035,0.43117,-0.15548,-0.18101,-0.002467,-0.078996,-0.10449,0.074038,-0.1555,0.48216,0.099583,-0.02798,-0.12999,-0.10452,-0.078972,-0.20652,0.66075,-0.002485,-0.25753,-0.13,0.023035,0.20157,0.048543,-0.25757,0.55875,-0.3851,-0.053458,-0.18101,0.15058,0.15056,-0.002461,-0.053464,-0.15552,0.099564,0.023023,-0.078977,-0.12999,0.023065,-0.002467,0.17607,-0.078996,-0.053482,-0.18102,0.45668,0.2271,-0.43609,1.1199,-0.56363,-0.43607,-0.30855,-0.078972,0.12501,0.048567,0.15059,0.023065,0.048518,0.048555,0.32913,-0.25754,0.17609,-0.027969,-0.20651,0.023023,-0.10447,-0.07899,0.12505,-0.13,-0.12999,0.074062,-0.053495,0.074038,0.099559,-0.20648,-0.25752,-0.002467,-0.00251,0.074051,0.023047,0.15056,0.099559,0.023041,0.12507,-0.027969,-0.053482,-0.2065,-0.027987,-0.23203,0.99234,0.023035,-0.30856,-0.20655,-0.07899,-0.181,-0.12998,0.25257,-0.20652,-0.002485,-0.25751,1.3494,-0.33405,-0.053506,-0.05347,-0.079002,-0.15551,-0.10449,-0.078972,-0.027969,-0.002479,-0.002472,-0.078984,0.17609,0.099546,0.023059,-0.002485,-0.002454,-0.027993,-0.078977,0.023054,0.12503,-0.002443,0.048561,-0.053488,0.099546,-0.18103,-0.078959,-0.002491,-0.027969,-0.027969,0.023047,-0.002467,-0.027969,-0.027969,-0.002461,0.25262,0.45666,-0.10453,-0.23205,-0.28302,-0.13,0.023047,-0.1045,0.15054,-0.027974,0.6097,-0.027987,-0.18101,-0.13,-0.078984,-0.027962,-0.078972,0.099559,-0.078966,-0.078984,0.023047,-0.13,-0.053488,-0.002472,-0.078996,0.023054,0.099546,0.023059,0.048536,-0.027962,0.048543,0.023029,-0.15549,-0.1045,-0.13,0.53323,-0.15553,-0.41059,0.12505,-0.1045,1.0689,-0.33409,0.66071,-0.12997,-0.64013,-1.3799,-0.64016,0.048567,0.048567,0.43115,1.7831,0.17606,-0.38516,0.20157,-0.35956,-1.6604,-0.33406,0.12505,-0.35962,-1.2778,0.86485,2.982,4.0787,-1.3289,-1.9411,-2.2982,-0.97179,0.30359,-1.5074,0.99241,0.91586,2.2932,-0.6657,-1.5074,-1.3799,0.35463,3.9512,-1.4819,-0.74218,0.73727,-1.788,-0.43612,-0.69119,-0.078996,0.22711,0.22713,0.32912,0.2526,0.38016,-0.078996,-1.4564,2.6248,-2.6298,1.3495,3.6196,1.7576,-1.3289,-1.6605,-1.7625,0.17612,-0.76766,-2.0686,1.4004,-1.5585,3.3901,-0.41057,0.15059,1.4005,0.81373,-1.0228,-0.58918,-0.20655,-0.002485,0.32915,-0.002454,0.38015,0.099583,-0.002448,0.5587,-0.18101,-0.89526,-0.30854,0.25261,-1.4053,6.9611,-1.9666,-1.0483,-0.9718,-0.99726,-0.76772,0.68627,-0.18104,0.12507,0.91582,-0.23203,-0.46157,-0.2065,-0.10444,-0.35964,1.1453,0.22706,1.5025,0.17612,-2.3492,-1.1503,0.43115,0.66073,-0.89523,0.81383,-0.94624,2.8798,-1.3034,-0.3341,-0.053464,0.074124,-0.61465,-0.61471,2.6759,0.60969,-0.64012,-1.3288,-0.71666,-0.56367,0.048543,0.81375,0.30366,0.38016,-0.46163,0.15056,-0.56369,0.20161,0.58423,1.1964,0.22709,-0.76767,-0.58911,-0.71671,0.22706,-0.58916,1.2474,-0.33405,-0.15553,0.91581,2.2167,-1.5329,-0.18101,-1.2524,1.1199,0.15057,-0.43611,0.30361,0.04858,1.7066,-0.002467,-0.66567,-0.18105,0.66072,-0.20652,-0.51262,-0.002436,-0.20652,-0.89527,-1.0228,-1.2523,-1.1503,-0.15553,2.3698,-0.92067,1.1964,-0.079063,-0.84426,-0.38505,-0.078984,0.35464,1.9361,-1.0993,0.099564,-0.64011,0.55869,-0.41057,-0.35957,-0.079008,-0.86972,0.73725,-0.58918,3.9257,-0.79318,-0.7932,-1.2268,1.2729,-0.20649,0.2526,-0.76766,0.048512,-0.28311,-1.2524,2.3442,-0.078966,-0.28305,-0.23204,1.273,0.15057,-1.5329,0.81376,-0.23201,0.50771,-0.41058,-0.84422,0.22707,0.48218,1.5025,-1.2524,-0.94625,0.17609,-0.053513,2.3953,-0.13,-1.0738,-0.61466,-0.46158,0.074087,-0.41054,-0.38511,-0.20655,0.99229,0.02298,2.2422,-0.74212,-0.51264,-0.30854,-0.15553,-0.28305,-0.079008,0.12509,-0.13002,0.099564,-0.48706,1.8086,-0.078984,0.15056,-0.51262,-0.84423,-0.48714,1.8596,-0.99723,0.22718,-0.94625,-0.30861,0.66072,1.3494,0.048549,0.40569,-0.74218,-1.3288,1.5535,-0.28305,-0.46159,0.048561,0.55869,0.76275,-0.92073,-0.51264,1.426,-0.25756,-0.58913,-0.79321,0.40568,-0.002443,0.099564,-0.38509,-0.002485,-0.25759,0.30366,0.76278,0.83928,-0.64012,-0.64018,-0.51263,1.1454,-0.2065,-1.2778,0.5587,1.3494,-0.15553,-0.002479,-0.66566,-0.56364,-0.25756,-0.3851,0.99234,0.17607,-0.8187,-1.0228,1.1964,0.50771,-0.41061,-0.28305,0.48216,0.83928,-0.002461,-0.28305,-0.56365,-0.027969,-0.002479,0.25261,0.023023,-0.33407,-0.05347,0.50776,-0.30858,0.38014,0.99233,-0.23202,-1.0993,-0.94625,-0.33407,-0.10452,0.12513,0.20158,-0.05347,0.43113,0.81378,-0.43609,-0.23205,-0.33407,-0.12999,0.0741,0.099577,-0.10453,-0.43613,0.1506,1.1455,0.25264,-0.81874,-0.61465,0.3801,0.99235,-0.81873,0.17601,0.227,-0.30845,-1.4818,-1.4309,5.5326,-0.20655,-0.94627,-0.71668,-0.64016,-0.35955,-0.58909,-0.56362,0.81376,0.43116,-0.15549,-0.002485,-0.66565,-0.56364,0.58422,0.99232,-0.94625,0.099552,-0.10448,0.38013,-0.53811,-0.86975,0.30364,1.3749,-0.53813,-0.28304,-0.23202,-0.20653,-0.33405,-0.64018,0.86482,1.0433,-0.41059,0.30362,-0.79319,0.15059,0.15056,0.023047,-0.46157,-0.97175,0.73728,0.20155,-0.15553,-0.84425,0.60969,-0.02798,-0.18104,-0.18103,-0.46159,0.86478,0.20166,1.528,-1.1758,-0.23207,0.023065,0.40566,-0.12998,-0.4106,0.099583,-0.053525,-0.10452,0.55873,-0.15553,1.1709,0.78828,-0.58913,-1.6605,0.30365,-0.64018,-0.25753,-1.1504,0.35461,0.66084,0.32925,-0.15546,0.40558,0.55866,0.20155,0.86474,0.12504,-0.18103,-0.027956,-0.84419,-0.56356,-0.46159,0.25263,-0.18104,0.074038,-0.002521,0.048555,-0.69116,1.528,-0.20653,0.17607,-0.58912,-0.51262,-0.25753,0.66072,0.2781,0.099552,-0.79319,-0.71666,0.8393,-0.48711,-0.28307,-0.46163,0.20156,0.53323,-0.33406,0.023041,0.25263,0.048536,-0.1045,-0.10447,0.12504,-0.002461,0.12505,0.048531,-0.43608,-0.35956,0.99235,-0.23207,-0.53812,0.89029,0.048525,-0.64014,-1.1758,-0.20653,0.81377,0.8393,-0.53817,-0.25757,1.1454,-0.35943,-0.53808,0.073953,0.53312,0.02298,0.3036,0.89032,-0.51261,-0.35957,-0.69116,2.0637,-0.69113,-0.92073,0.20159,0.94127,-0.38511,-0.18104,-0.33407,-0.99724,0.023059,0.38016,0.048585,-0.46166,0.83928,-1.1503,2.0382,0.20161,-0.20656,0.30363,0.074069,-0.69116,-0.25754,-0.5381,-0.053513,0.048555,-0.002479,0.074081,0.17606,0.15059,0.099552,0.09957,-0.10449,0.023047,-0.20652,-0.30856,0.63521,-0.35956,-0.20649,-0.46162,0.68622,0.32912,0.20159,-0.053476,-0.76763,-0.35957,0.30354,1.1964,-1.3543,1.477,0.023035,-0.002528,-1.0739,-0.18102,-0.79305,0.12514,-0.053519,0.074026,0.073989,0.48213,0.22713,-0.35953,-0.07899,0.1761,0.023029,-0.30855,-0.18101,0.22714,-0.4361,0.91578,-0.53814,-0.15551,-0.48712,-0.13,2.0637,-0.97174,-0.35959,-0.92074,-0.86972,1.3495,0.4822,0.78826,-0.53814,-0.4106,-1.3543,1.8596,-0.028018,-0.25753,0.40565,-0.02795,-0.30861,0.099577,0.99235,-0.23204,0.78823,-0.89521,0.099601,-0.97172,0.27809,-0.58914,2.8034,-0.002461,-0.84424,-1.0993,-0.027987,0.12509,0.20159,-0.25755,0.023041,-0.20653,0.30364,-0.13001,0.68626,-0.25758,0.074051,0.32913,-0.33407,-0.94626,1.6045,-0.92073,2.1147,-0.10451,-0.94621,1.6555,-0.56368,-1.2268,-0.30855,-0.46161,0.48217,1.2474,0.15058,0.074033,-0.002461,-0.38506,-1.0228,-0.28302,0.78827,0.17608,0.048567,0.20158,-0.027987,0.074051,-0.28306,-0.58913,0.20159,0.27812,0.048549,0.60971,0.66076,-1.5074,1.681,-0.76773,-0.23201,-0.84417,0.099608,-0.30863,0.22706,1.7831,-0.41051,-0.48713,0.32914,0.50761,-0.23209,-0.0535,0.12509,-0.027962,-0.12999,0.048561,0.4567,-0.56362,0.17611,0.63521,0.022998,1.1199,-0.41057,-0.81868,-1.3033,-0.027998,-0.33409,-0.20653,0.17606,-0.43609,2.2677,0.25262,-0.25754,-0.53812,-0.20649,-0.30856,1.3495,0.074118,-0.002516,-0.74218,-1.0483,1.0944,1.0943,0.15059,0.5587,-0.97175,-1.1758,0.60974,-0.4361,-0.02798,0.20159,0.30363,-0.02798,-0.10451,0.55869,-0.13,-0.10446,-0.053488,-0.46162,0.71173,-0.053464,-0.079021,0.17609,-0.35957,0.1251,0.27809,-0.48711,-0.56365,-0.33398,-0.078984,1.0944,2.3442,0.20159,-1.0993,-0.15553,-0.81874,-0.56364,-0.10452,-0.053476,-0.25753,0.20163,0.12509,0.5332,0.38016,-0.18101,0.99231,-0.64017,0.023041,-0.30858,-0.078977,0.022943,-0.81869,-0.53799,1.0435,-0.66573,1.1453,0.074002,-0.51269,-0.48708,0.73725,-0.43607,1.0178,-0.58914,0.25259,0.30365,-0.61463,-0.002443,1.0944,-0.41057,-0.71669,-0.28305,-0.25757,1.0944,-0.20654,-0.15546,-0.20653,-0.12999,-0.46165,0.38014,-0.027998,2.2422,-0.3851,-0.46154,-1.0482,-1.5329,1.2984,0.43116,-0.027993,0.12509,-0.43612,0.074069,-0.28303,0.96684,-0.002394,0.60969,-0.74221,-0.3851,-0.41062,1.7065,0.83927,-1.0482,-0.51265,-0.5636,0.43117,-0.71668,0.023023,0.38013,0.8648,-0.35957,-0.20652,-0.53813,0.45664,0.074081,0.55872,-0.027944,-0.43613,0.22711,-0.35958,0.43118,-0.3086,0.048561,0.2271,-0.69118,-0.10451,1.9361,-1.3799,-0.66568,1.9616,-0.43608,-0.94625,1.6045,-1.0993,-0.7676,-1.2778,1.2218,-0.028023,0.68617,0.048518,-0.053458,-0.25753,0.40569,-0.23206,0.76275,-0.33409,-0.92069,1.2985,0.66075,-0.3086,-0.79324,-0.86975,0.66072,0.50769,0.20161,-0.23204,-0.89524,0.32914,-0.81872,1.528,0.58419,-0.51262,-0.76767,-0.51262,-0.23202,0.48214,0.048555,-0.027969,-0.078959,0.099546,0.27811,0.074026,0.048555,-0.30857,0.73728,0.30361,-0.46157,-0.48713,-0.20652,-0.15552,-0.64012,0.86482,-0.38514,0.68618,-0.56356,2.0383,-0.41058,-0.69125,-0.79326,-0.027993,-0.48713,-0.33407,0.78829,-0.30854,0.81376,0.048585,-0.41055,-0.078972,0.07402,0.17611,-0.002467,0.30364,-0.053476,-0.28306,-0.53814,2.3187,-0.38507,-0.3596,-0.53812,0.30363,-0.84418,-0.64018,-0.35959,0.12509,0.76278,-0.48712,0.9413,-0.30858,0.20159,-0.20652,-0.41054,-0.38503,1.0688,-0.53814,0.02301,0.32914,-0.053519,0.63527,-0.15551,-0.56362,0.50769,-0.25754,-0.79321,1.681,-0.25753,-0.89523,-0.61464,-0.30858,-1.0483,3.5685,-0.18105,-0.64003,-0.58903,0.3801,-1.1504,1.0178,0.30356,0.12505,0.02298,-0.283,-0.48702,-0.12996,0.30358,-0.002467,0.099521,-0.13001,-0.51257,-0.25756,1.2474,-0.38509,-0.41059,-0.1045,-0.61463,0.38014,2.6758,-1.2269,0.81378,-0.56365,-0.84421,-0.13001,-0.53812,1.6555,0.1506,-0.28307,0.048555,-0.027974,0.20159,0.023041,-0.027969,-0.078966,0.20152,0.91588,0.07416,-0.56363,-0.38515,0.43112,-1.1248,0.099534,0.25263,-0.28309,-0.2065,-0.41058,0.22716,1.9106,-0.7932,-0.15553,-0.33406,-0.30856,-0.1045,0.2271,0.074044,-0.35954,-0.078966,1.0689,0.022986,0.074044,-0.71668,0.25263,-0.078996,0.09957,-0.76769,0.32912,-0.53814,-0.053488,-0.02798,0.12505,0.17604,0.50766,-0.4105,-0.84403,0.074057,0.3801,0.32906,0.22705,-0.13003,0.45666,-0.33405,-0.35956,0.53322,0.048536,-0.66565,1.2984,-0.15551,1.2474,-1.7114,-0.56362,-0.2576,-0.4106,0.048531,-0.002485,0.22709,0.40566,0.27814,0.25261,0.074062,0.048549,-0.13,0.023047,-0.43609,0.048573,-0.002467,-0.20653,-0.56365,-0.61468,0.48218,1.2984,-0.99721,0.43116,0.17607,0.86478,-0.3341,-0.28302,-1.0992,-0.71664,0.25254,0.022998,0.32909,0.30361,-0.28307,0.15056,1.0434,0.17608,-0.18101,0.074062,-0.12999,-0.053476,-0.20652,-0.027962,-0.35958,-0.002497,-1.1248,-0.64014,0.43121,2.2677,0.58413,2.1146,-1.4309,-1.2013,-0.46161,-0.1045,-0.33403,0.023035,0.27815,-0.078972,0.22711,0.32914,0.96681,-0.30863,-0.46157,-0.5125,0.48221,0.68617,0.32904,-0.94625,0.20157,0.074038,0.30364,0.63521,-0.56362,-0.58915,-0.13002,-0.53811,1.2474,-0.38505,-0.53816,0.30361,-0.002467,1.0434,-0.25753,-0.38509,-0.84422,0.12509,0.63523,-0.30859,0.2526,-0.64018,-0.30857,-0.027969,-0.3595,-0.13001,0.58419,-0.10451,-0.23202,0.53317,-0.002454,-0.38508,0.68626,-0.25756,0.09957,1.2729,-0.61467,-1.0738,-0.84414,-0.20645,-0.079033,-0.079008,-0.53816,0.58415,0.30361,0.53317,-0.18101,-0.23203,0.4312,-0.13,-0.43607,-0.20652,-0.15551,-0.30855,-0.15551,-0.35956,-0.28303,2.3188,-0.38511,-0.33407,0.074026,-0.002467,-0.4361,-0.58917,-0.15554,-0.18101,-0.002448,0.20161,0.25261,0.20158,0.099546,0.12507,-0.28298,0.2526,0.27811,-0.28308,-0.84425,0.94133,-0.25751,-0.58914,0.60969,-0.56371,-1.0482,1.2986,0.99234,-0.20664,-0.30863,-0.15554,-0.027998,0.09957,0.048561,0.023035,0.074081,-0.53807,0.1251,1.1199,0.60975,-0.71668,-0.46156,-0.30858,0.43114,0.12504,0.25257,-0.89524,-0.027962,-0.23198,-0.69119,0.2271,1.1709,1.1454,-0.61466,0.8393,-1.3033,-1.1503,0.43117,-0.23207,-0.20652,0.48215,0.15059,-0.35959,-0.053476,0.63522,1.7065,-0.86972,-0.20651,0.2271,-0.20655,0.20155,-0.61454,-0.7166,0.074026,0.27805,0.86474,-0.41063,0.35465,1.0179,0.60972,-0.53813,0.12513,-0.74217,-0.79319,-0.4361,-0.078953,-0.23207,-0.66568,0.48215,0.53317,1.0179,0.09957,0.074038,-0.25754,-0.23205,0.099559,-0.30855,-0.20653,-0.053488,-0.002472,-0.027956,0.38015,-0.33404,-0.64014,-0.38509,0.17607,1.4005,-0.66567,0.73727,-0.84423,-0.53812,-0.13003,-0.4361,0.9924,-0.28307,0.048458,0.38013,0.30375,-0.66563,0.25259,0.30358,0.023035,0.07402,-0.027969,-0.002479,-0.053458,-0.12998,-0.23203,-0.15551,0.40566,-0.20653,0.17607,-0.28298,-0.56367,-0.61465,0.78831,0.32912,-0.25758,1.5535,-0.66569,0.43118,-0.43608,-0.61466,-0.18101,-0.64015,2.5483,-0.13002,-0.86972,-0.10452,0.048555,0.074062,0.58423,-1.1503,0.048525,1.5025,0.17607,-1.5584,0.63518,0.023041,-0.61465,-0.53813,0.83923,0.2781,-0.81859,0.15066,-0.028011,0.12502,-0.20655,0.50767,0.12505,-0.56364,0.78829,-0.2065,-0.18104,-0.10449,-0.20646,-0.3851,-0.53815,0.81376,-0.33406,-0.13002,0.38014,0.048536,0.58422,0.55871,-0.69118,-0.38508,-0.79316,-0.43606,0.7117,0.71171,-0.027993,-0.35954,0.32913,-0.4871,0.55867,0.074044,-0.33405,-0.3086,0.17619,-0.53804,-0.078972,0.12499,-0.18107,0.12507,0.78824,-0.53815,0.48218,-0.13001,0.81378,-0.79322,-0.66567,0.048604,-0.56362,-0.28305,-0.079026,-0.23204,1.0943,0.63523,-0.25757,-0.35955,-0.41058,-0.23205,0.12504,1.375,-1.1248,0.32912,-0.4106,0.023065,0.38011,-0.84422,0.50761,0.20158,0.81391,-0.97167,-0.2576,-0.15556,0.0485,0.55871,0.6607,-0.078972,-0.56362,0.25259,-0.71665,1.4515,-0.20649,-0.13002,0.17609,-0.74219,1.1453,-0.28303,-0.89522,0.78829,-0.18104,-0.25755,0.023047,-0.30855,2.2677,0.17607,-0.66566,-0.23205,-0.46161,-0.15549,-0.28307,0.5332,-0.51264,0.73728,0.2271,-0.28305,-0.69119,0.86478,1.1198,-0.436,-1.0482,0.48215,0.22704,-0.97181,0.38019,-0.18101,-0.15554,-0.078972,0.023023,-0.10448,-0.002461,0.099546,0.12504,-0.43609,1.1709,-0.46159,-0.43606,0.12506,0.71175,-0.71673,0.99234,-0.3596,-0.74214,-0.56362,0.4822,-0.18104,0.07402,-0.46162,0.38016,0.81378,0.63525,-0.4871,-0.92076,-0.2065,-0.002479,-0.43612,-1.0737,-0.48697,0.3036,0.43112,0.22702,-0.53811,0.68624,0.55867,-0.13001,-0.027998,-0.43609,0.78835,0.12507,-0.079021,-0.61468,-0.89524,0.15059,-0.46162,0.32917,-0.33406,0.023023,-0.10449,-0.079002,-0.33405,1.4259,0.099577,1.3494,-0.053476,-0.61465,-0.7167,-0.58911,-0.53811,0.50767,0.099521,0.17607,-0.28306,0.96686,-0.38506,-0.30854,-0.13003,-0.10458,-0.28301,-0.84408,1.4005,0.27805,-0.15556,-0.18104,-0.41057,-0.61467,0.66074,0.55867,-0.33409,0.9413,-0.13001,-0.51259,-0.33407,-0.43602,-0.46152,0.023047,0.66065,0.76275,-0.3086,-0.56365,0.58424,1.4004,-0.18104,1.2984,-0.74218,-1.0738,-0.66566,-0.13007,-0.41058,-0.2574,0.15066,0.09951,0.3036,-0.002565,0.50765,0.48218,-0.46157,-0.58915,-0.00243,1.2984,-0.053495,0.35463,-0.89523,-0.61465,0.40565,0.25258,-0.71663,0.023047,-0.23199,-0.38505,0.48218,-0.2066,-0.13,0.86477,1.0433,-0.30862,-0.027858,-0.99719,0.17604,-0.35962,-0.027974,0.074062,-0.002491,-0.30854,0.89026,-0.48708,-0.43608,-0.15552,0.17614,0.94129,-0.35961,-0.58918,-0.30856,0.17609,0.50771,-0.23206,-0.92074,0.86486,-0.027962,-0.66565,-0.58913,1.1198,1.8085,-0.86971,-1.0992,-0.79323,0.71173,0.12504,0.048543,-0.53816,-0.2065,0.1761,0.68624,-0.97172,0.58421,0.55871,-0.7677,-0.33407,-0.027987,-0.23205,0.20163,-0.28303,-0.28306,0.38015,1.0433,1.0689,-0.51254,-1.0738,0.12504,-0.079057,0.22706,-0.15546,-0.18102,-0.027998,-0.28308,0.68626,1.1454,-0.30855,-0.43609,-0.51262,-0.13002,0.20158,0.91588,0.12507,-1.3799,0.60971,-0.81875,-0.3341,-0.053482,1.9616,-0.30855,-0.69117,0.12501,0.83936,-1.0482,-0.25752,0.22701,-0.0535,0.68619,0.074044,-0.078977,-0.027974,-0.05347,-0.23204,0.63523,-0.41054,-0.28308,0.074044,0.81381,-0.28305,-0.20661,-2.0685,2.1657,-0.66564,0.55871,-0.7677,0.20156,-0.33405,-0.1045,0.27814,-0.002479,0.048567,0.15056,0.074069,0.048525,0.15058,-0.027974,0.023041,-0.25754,0.66073,-0.33405,-0.38516,0.60979,-0.69108,-0.81871,0.96679,2.5228,-0.94634,-0.92079,-0.53818,-0.027974,-0.74212,1.0434,-0.078984,-0.07899,0.27814,-0.002467,0.074087,0.20159,0.17609,0.048549,0.099552,-0.18103,-0.002472,-0.07899,-0.053482,-0.10449,-0.43612,-0.4871,1.7065,-0.10451,-0.48714,-0.69115,-1.1248,1.477,0.50766,-0.71666,-0.33409,0.2271,0.074062,-0.078984,-0.002497,0.048549,-0.56354,0.96692,0.17601,-0.18101,0.38012,0.37998,0.25262,-0.86956,1.2219,0.022961,-0.20655,-0.079002,-0.41059,-0.33403,-0.69116,1.0179,0.9158,-0.027962,-0.53815,-0.35955,-0.10451,-0.28305,0.074038,0.35466,0.30362,0.15057,-0.41058,-0.027962,-0.25758,1.4514,-0.56364,-0.56365,-0.23202,-0.33406,0.09957,0.17609,-0.15549,-0.28306,0.074142,-0.28309,0.32913,-0.283,-0.28302,-0.002503,-0.25758,0.68622,0.30362,-0.28307,0.048567,0.27811,-0.15551,-0.027969,-0.3086,-0.078996,-0.66554,-0.078923,0.91573,0.048494,-0.053506,0.12505,0.96685,-0.51262,-0.99725,0.96682,-0.20652,-0.38509,-0.81869,2.3698,-0.81871,-0.76771,-0.8187,2.5228,-0.64015,-0.99725,0.38012,-0.71664,0.78825,-0.99724,0.12504,0.20159,0.074033,-0.20642,-0.078953,0.45661,0.27807,0.3546,0.22707,-0.18103,-0.53812,0.048598,0.023072,-0.15551,-0.43606,-0.1045,0.17609,-0.94628,2.5738,0.27811,-0.7167,-0.30858,-0.79319,0.048573,-0.64015,0.023047,1.2219,-0.43613,0.35471,-0.33405,0.099546,0.023035,-0.20654,0.048531,0.17606,0.1506,0.25261,-0.002443,-0.20652,-0.41058,0.17603,0.7118,0.89044,0.0485,-0.71676,-0.89518,-0.79314,0.074026,0.12502,-0.35964,-0.10452,1.8851,-0.5126,-0.61466,-0.41054,-0.15548,-0.053446,0.023047,-0.078977,0.048531,0.27812,0.27811,-0.053476,-0.13002,-0.13001,-0.15553,0.074051,0.023023,-0.18102,0.53313,-0.30845,-0.38498,0.58419,0.99225,0.2781,-1.0483,-0.89524,-0.74218,1.7066,-0.58912,0.43113,-0.38508,-0.81872,0.58422,0.099577,0.30363,0.5332,0.2526,-0.28302,-0.46157,-0.10448,0.12502,-0.69118,1.8341,-0.002485,0.5587,-0.89524,-0.69117,-0.38508,0.023041,-0.23205,0.20152,0.04858,0.38037,-0.181,0.12497,-0.18106,-0.002516,0.71173,-0.23208,0.2526,-0.18103,-0.25751,-0.13004,-0.13,-0.66569,1.5535,-0.92065,0.32915,1.1964,-0.69121,-0.53815,0.43114,-0.58914,-0.38508,-0.053513,-0.027969,0.22708,0.15059,-0.41058,-0.30855,2.2167,0.78818,-1.0993,-0.97158,-0.81868,-0.079106,0.43112,0.17606,0.32916,-0.15551,-0.18101,-0.46153,0.02301,-0.15553,-0.53815,2.7524,-0.7167,0.4822,-0.6402,-0.61466,-0.33406,-0.10442,-0.30856,-0.15552,0.048512,0.25259,0.35467,0.76283,-0.53816,1.0943,-0.1301,-0.46156,-0.9206,-0.41055,0.17602,0.20158,0.60969,-0.30855,-0.74221,0.17611,1.6555,-0.15551,-0.28307,-0.58913,-0.71668,0.023072,0.099632,-0.79319,0.68623,-0.20656,0.32913,0.023029,-0.20655,0.43115,-0.35959,-0.20652,-0.1555,0.27813,-0.41058,0.43118,-0.23204,-0.48711,-0.20652,0.50769,0.35465,-0.56363,0.48209,0.25258,-0.38495,-0.79314,0.40566,-0.30863,-0.18106,0.12504,-0.002497,0.5842,-0.02798,-0.30853,-0.15549,1.1454,-0.053476,-0.56362,-0.28306,-0.28306,-0.76763,-0.15551,1.2985,0.27808,-0.4106,0.12502,0.83925
0.07402,-0.027962,-0.25748,0.099546,0.048531,-0.002461,0.17604,0.048536,-0.05347,0.048549,0.048543,-0.027969,0.023035,-0.002467,-0.1045,0.074038,-0.053458,0.023029,0.023041,-0.078984,0.048561,-0.002467,0.099546,0.023035,-0.15549,-0.027962,0.074038,0.048543,0.048549,-0.002467,0.023035,-0.053476,0.074044,-0.078972,-0.027969,-0.10449,-0.02798,-0.053464,0.20158,0.048555,-0.078972,-0.053495,-0.02798,0.023047,0.023017,-0.053476,-0.027969,-0.053476,0.048555,-0.053476,-0.002443,-0.027987,0.074038,-0.15548,0.023035,-0.002467,0.12504,-0.027969,0.17606,-0.027944,-0.18098,0.048543,0.12504,0.023023,-0.002461,-0.053482,0.023047,0.023047,0.074038,-0.002461,0.099552,0.048555,-0.1045,-0.002485,-0.05347,0.023029,0.074062,-0.078977,0.048536,-0.05347,-0.027969,0.099546,0.023035,0.023041,-0.078996,-0.078984,-0.078972,-0.027969,-0.053476,0.074057,-0.027969,0.048549,-0.002472,0.023041,-0.12997,-0.15549,0.09954,-0.027969,0.074038,0.12505,0.048543,0.023041,0.048543,-0.002467,-0.053476,-0.10449,0.023047,0.023054,-0.053488,-0.027962,0.074044,-0.078972,0.048531,-0.078977,0.099546,-0.078977,0.023023,0.023065,0.074038,-0.027956,-0.027993,0.023054,0.023023,-0.20651,-0.027993,0.023059,-0.053488,-0.027956,0.15056,-0.078959,-0.15549,0.023035,0.12505,0.023041,-0.10448,-0.079002,0.023047,-0.027969,-0.078972,-0.027956,0.12506,0.023029,-0.15547,-0.078996,0.12504,-0.027969,-0.027969,-0.078972,0.048555,0.074051,0.023029,0.048549,-0.13001,0.074062,-0.1045,0.023041,-0.053476,0.023047,-0.002461,-0.002461,0.023047,-0.002467,-0.002454,-0.079002,-0.12998,0.023023,-0.027969,0.074057,0.023035,0.074062,0.15054,-0.10449,-0.002467,-0.027969,-0.12999,0.023035,-0.10448,-0.002467,-0.002461,-0.078984,0.023054,-0.002479,-0.05347,-0.002467,-0.053488,0.099559,-0.13,-0.002448,0.048531,0.023059,0.12504,-0.002454,-0.12999,-0.027974,0.023029,-0.1045,-0.002454,0.099521,-0.15545,0.048525,0.074057,0.12505,-0.002467,-0.078966,-0.10449,-0.002454,0.023041,0.048525,0.15056,0.12507,0.048531,0.074044,-0.053464,0.023035,-0.002454,-0.10448,-0.027969,-0.002467,-0.002454,0.099546,0.048543,0.023023,-0.05347,-0.027974,-0.002472,0.023041,-0.053482,0.023047,0.074044,0.023059,-0.027993,0.048561,0.023023,-0.05347,0.023029,-0.002467,0.048543,0.048543,-0.05347,-0.053464,-0.002467,0.023029,0.074026,-0.027987,-0.20647,0.099521,0.099552,0.12504,0.023059,0.099552,0.023047,-0.12999,-0.027956,-0.13,-0.02798,-0.002454,-0.053476,-0.002491,-0.027956,0.074038,0.048561,0.09954,0.074051,-0.02798,-0.13002,-0.053476,-0.12999,0.048543,-0.12999,0.17607,0.074044,0.074038,0.15057,-0.07899,0.074038,-0.05347,0.023017,0.023059,-0.12998,0.17606,0.023035,0.099552,-0.053476,-0.078984,0.023047,-0.15551,0.099552,0.023047,0.023041,0.074044,-0.002448,0.023017,-0.053464,0.12504,0.023029,-0.18098,0.074038,-0.002461,0.17606,-0.002461,0.12503,-0.002454,-0.12999,-0.027956,-0.078977,0.15058,-0.053495,-0.10447,-0.002479,0.22707,0.074038,-0.078972,-0.15549,0.074026,-0.18099,-0.079002,0.048573,-0.002461,0.023047,-0.053476,-0.002467,-0.07899,-0.002461,0.048549,-0.002454,0.048531,-0.002454,-0.027987,0.2271,-0.053482,-0.027956,-0.053482,-0.027956,0.048531,-0.027969,-0.078984,0.048555,0.023029,-0.002454,-0.027974,0.099564,-0.002461,0.023047,-0.027974,0.048531,-0.078977,0.074038,-0.053458,0.15056,-0.002467,-0.027969,0.099552,-0.05347,-0.002479,0.023005,-0.20645,-0.053464,0.023029,0.15057,-0.1045,0.17607,0.048512,-0.07899,-0.078959,-0.027969,0.074026,0.023054,-0.027969,0.048555,-0.002461,0.074051,-0.15548,-0.1555,-0.027962,-0.13001,-0.002461,-0.053482,0.099559,0.048549,0.12505,-0.053464,-0.053482,-0.027956,-0.027993,-0.027969,-0.027969,0.074038,0.048561,0.074038,0.048561,-0.002467,0.023017,-0.002454,-0.13001,-0.053464,-0.07899,0.023047,0.048543,0.023047,-0.027931,-0.002485,0.17606,-0.18102,-0.053488,-0.12998,0.099546,0.048543,-0.07899,0.09957,0.099564,-0.053482,-0.20647,-0.078996,0.099521,-0.02798,0.048525,0.023059,0.048549,-0.002448,-0.02798,-0.027944,-0.002485,-0.027969,0.09954,0.023059,-0.002485,0.099564,-0.027969,0.15057,-0.13,0.023047,-0.002472,0.023035,0.074044,-0.02798,-0.05347,0.023023,-0.078972,0.048536,0.074057,-0.053476,-0.002467,-0.027974,-0.002467,0.09957,-0.053476,0.099583,-0.078996,0.09954,-0.15549,-0.1045,0.048555,-0.027969,0.048531,-0.078972,-0.15551,0.12508,-0.002467,-0.002472,0.023035,0.048555,0.023041,-0.002491,-0.027969,-0.002491,-0.053451,-0.12999,-0.053488,-0.002454,0.099534,0.048567,0.17604,-0.078996,-0.20647,0.048531,-0.15549,0.074038,0.048531,0.09957,-0.002467,-0.027969,-0.10449,-0.053488,0.074033,-0.078972,-0.07899,0.074051,-0.053458,-0.053476,-0.002454,-0.027987,0.074044,0.30364,-0.002485,-0.15551,-0.18102,0.023047,-0.078984,-0.027962,0.12507,0.048549,-0.002472,-0.078984,-0.002467,-0.027974,-0.053488,0.15057,-0.027969,0.023047,-0.002467,0.048536,-0.078966,0.074038,-0.053476,0.023029,-0.078977,-0.053476,0.074069,-0.053482,-0.002467,-0.053464,-0.053482,0.074044,0.023029,-0.23199,0.023047,0.099534,0.074044,-0.002472,0.15058,-0.07899,-0.053476,0.023047,-0.07899,-0.10447,-0.10451,0.048549,0.048536,-0.053446,-0.002467,0.09954,0.023041,-0.053495,-0.078972,-0.027974,-0.002461,0.023041,-0.027969,-0.002472,0.074062,-0.053476,0.048543,0.023023,-0.027962,-0.053495,0.048549,-0.027974,0.074051,-0.053464,0.12505,-0.05347,0.09954,-0.078977,0.074038,-0.10448,-0.027974,0.12506,-0.12999,-0.027962,0.15058,-0.02798,0.12503,-0.15551,-0.30851,-0.48713,1.528,0.023029,-1.3799,0.63527,1.273,-1.2779,-0.71671,0.27811,0.94133,-0.71663,-2.0175,2.8799,0.2526,-1.7116,0.22711,2.9309,-0.79324,-0.1045,-2.0686,3.1095,0.86482,-1.7625,-0.20653,-0.33409,-0.86972,0.20153,-1.4054,3.339,-0.20648,0.38019,0.48222,1.0688,-0.64022,-3.395,1.222,0.89032,0.0485,-0.053513,-0.64014,-0.46163,-0.20655,-0.053495,0.17611,-1.0737,0.83926,0.099559,-0.15553,-0.61463,3.8747,-2.8848,-1.1503,-0.71665,9.2058,-0.20654,-2.7573,4.1043,-1.6094,-0.99729,-3.8031,-1.2269,2.4463,0.40566,0.12509,1.8852,1.273,0.43115,-0.28314,1.4004,-0.8187,-0.86972,-0.46161,-0.94622,-0.10449,0.45672,-0.28303,0.4311,1.2729,0.32915,-1.9155,-0.89527,3.4155,1.2475,0.38016,0.58422,-1.2779,-1.4819,-1.4819,-1.4819,0.32914,-0.18099,-1.4564,0.023078,3.2625,-0.71664,0.81376,-0.64012,3.186,-0.25754,-0.58916,-0.56363,-0.79319,-2.0941,2.2167,-0.00251,1.681,-0.86975,-1.6605,-0.86974,0.91584,-0.81868,-0.15549,3.4156,-0.61467,-0.028011,-0.76765,-0.6402,-0.12997,-0.33404,-0.02798,-0.20657,0.48217,-1.3034,1.6045,1.1199,2.0382,-1.0228,-1.2013,1.7065,-0.81875,-1.0483,-1.0738,0.38016,0.96685,0.32911,-0.10451,-0.58918,1.1199,0.2781,-0.74218,-0.23207,-0.027974,-0.027962,-0.25753,-0.18099,-0.71666,0.60973,1.9361,-0.23207,-0.25754,-0.76774,-0.71666,-0.6146,-0.51267,0.66077,-0.10452,0.78825,-0.10456,1.2474,-0.002454,-1.1503,1.0689,-0.51262,-0.64013,0.43115,-0.23202,-0.38511,-1.9155,1.0688,3.5431,0.15059,-0.97177,-2.5278,3.288,-0.61465,-1.5074,-0.7422,0.30365,1.0178,-0.89522,-1.1758,2.4973,-0.69118,-0.66565,-0.74218,-0.078935,-0.053488,0.53317,0.78814,-0.33409,-1.2267,-0.97164,1.3239,2.5482,-0.99732,-0.48717,-0.30855,-0.76771,-0.33405,-0.12998,-0.64015,0.38017,-1.0993,2.9309,-0.69117,-1.4564,1.477,0.78828,-1.1248,0.38014,0.38011,-0.079026,-0.53812,-0.53809,1.1199,-0.76775,-0.56366,-0.79321,1.3749,-0.053482,-0.10452,-0.053451,0.40568,-0.10449,-0.99727,0.15054,0.55872,-0.02798,0.73725,-1.0483,2.2933,-0.30854,-0.51264,-0.15557,-0.8187,-0.20652,-0.10452,0.22712,-0.053476,-0.86972,0.12505,0.99231,0.074087,-0.99715,-0.13005,0.15051,0.96682,0.71177,-0.43609,-0.97176,1.2474,-0.30855,-0.58915,0.81378,-0.84419,0.89031,-0.43606,-0.23201,-0.81873,-2.1196,1.7831,-0.027969,0.099546,-1.0738,-0.46162,-0.53813,1.7321,0.20157,-0.13,0.17608,0.27812,-0.283,-0.69118,-1.0483,1.2984,-0.53814,-0.56361,-0.18106,0.8648,-1.0227,0.73727,-0.25761,-0.18105,-0.28304,-0.1045,-0.25753,0.40561,1.1708,-1.5329,2.4463,-1.2268,-1.788,-0.66563,-0.58912,0.53316,-0.58913,1.528,0.73726,-0.84424,0.32912,0.76273,-0.58913,-0.35957,0.099552,0.63521,-0.3851,-0.41057,0.22709,0.048555,1.5026,-0.7167,-0.61465,-0.64017,-0.33406,0.63523,-0.38506,-0.23198,-0.64012,2.7013,-0.81874,-0.23202,0.2781,-0.51261,-0.38509,-0.43612,-0.12998,0.074057,0.8393,-0.20651,0.22712,-0.56362,-0.56369,-0.43607,-0.4104,-1.4054,2.8544,1.7319,-0.76772,-0.25761,-0.46161,-0.23205,-0.23203,0.17609,-0.38505,-0.51262,0.99237,-0.20652,0.48217,1.8596,-1.5839,0.20163,-0.74225,0.20159,-0.5126,-1.533,2.5483,-0.053495,-0.74222,0.40565,1.0434,-0.97174,-0.64014,1.0434,-0.79322,-0.46162,-0.43612,0.38025,-0.1044,0.38017,-0.10459,0.48211,0.76269,-0.25754,-0.41057,-0.53809,0.17603,0.1506,0.15064,-0.33404,0.099503,-0.027993,-0.23201,-0.84422,0.73725,0.45668,1.4004,-0.35959,-0.20649,-1.3289,0.023023,-0.15548,0.43118,-0.23207,1.1709,-0.25758,-0.28306,0.5587,-0.38508,-0.053476,-0.53815,2.1912,-0.5381,-0.89522,0.50768,0.86477,0.58419,-0.33404,-0.61469,-0.41061,-0.15553,-0.61453,-0.76761,-0.13002,0.27805,0.20158,0.20159,0.023023,0.048525,-0.053476,-0.20652,0.023017,0.023047,0.38016,0.66073,0.60974,-0.33405,-0.51262,-0.74217,-0.0535,0.76277,-0.51263,-0.25756,0.25261,-0.38508,-0.79321,-0.89522,0.96683,-0.10451,0.86485,-0.7422,1.0178,-0.48714,0.048549,-0.38508,0.099559,-0.28305,0.20154,-0.078959,-0.38487,0.048616,0.73714,0.17601,0.30353,0.20157,0.048567,-0.002461,-1.0483,1.2984,-0.8442,-0.53811,0.074062,-0.74218,-0.46159,1.8851,-1.1758,-0.66565,0.66073,1.2729,-0.58917,-0.58915,-1.584,0.58424,0.40563,-0.66564,-0.20652,0.66075,-0.25759,-0.43604,0.048512,0.81379,0.7628,-0.38506,0.023023,-0.30859,0.099583,0.17606,-0.25753,-0.33407,1.1964,-0.002577,-0.43609,-0.23187,-0.053415,-0.053549,-0.23208,0.6862,-0.3086,-0.33405,2.4208,-0.74217,-0.30856,0.17611,-0.89523,-0.20653,0.96683,-1.6349,-0.18105,0.94133,-0.53805,-0.25751,0.074051,0.30355,0.15056,-0.002485,0.099552,-0.05347,-0.20656,0.38018,1.9361,-0.92071,-0.66569,-1.0228,0.83931,-0.94623,-0.35959,0.55867,0.40568,-0.64015,-0.92078,1.681,0.20167,-1.3543,-0.20651,0.30358,-0.56367,0.07402,0.12505,0.048555,0.45664,-0.02795,0.32913,0.60973,-0.35956,-0.58913,1.9361,0.48216,-1.2523,-0.66568,-0.64018,0.30362,-0.8187,-0.81868,1.579,0.20162,0.40565,0.12507,0.1251,0.023023,-0.12999,-0.079008,0.023035,-0.30856,-0.002454,0.53323,0.35465,-0.51262,-0.053506,-0.20655,0.43104,-0.078941,-0.79304,-0.8441,1.3494,0.66064,-0.028011,-0.6402,1.2219,-1.1758,-0.99725,1.1454,-0.99729,-1.0993,-0.64016,2.9565,0.22713,-0.61463,-0.28306,-0.053482,0.09957,0.09954,-0.20653,0.60969,-0.4361,0.91581,-0.56361,-0.05347,-0.12999,-0.23205,0.04858,-0.25756,-0.48712,1.1453,0.50771,0.22713,0.60973,-0.89528,-0.48716,1.4259,-1.3033,-0.89514,0.20159,-0.41063,1.0943,0.20152,0.38014,0.63528,-0.33408,-0.41059,0.04858,-0.10449,-0.46158,-0.053495,0.20158,0.58419,-0.25756,-0.46159,0.09957,0.32912,0.023029,-0.61464,-0.35951,0.25259,-0.56367,-0.64016,1.8596,-0.43615,0.32908,-0.92065,-0.92064,-0.20654,-0.76775,0.50766,1.4004,-0.15549,-0.35959,-0.66563,0.15059,0.27812,-0.02798,-0.97176,-1.0993,1.8851,0.074057,-0.053495,-0.38509,-0.64017,0.66074,-0.35957,0.35467,-0.43609,0.20155,-0.25757,-0.028005,0.17611,1.2984,-0.35955,0.0485,0.22708,-0.28299,-0.41056,-0.25753,0.20157,-0.33405,-0.81873,1.987,-0.84425,0.73741,0.4567,1.5789,-1.4564,0.27811,0.074051,-0.99727,-0.94622,1.7065,-1.1503,-0.56362,0.22712,0.78829,0.32914,-0.58916,-0.05347,-0.002479,-0.027974,0.12509,0.074038,-0.15546,-0.71665,0.22704,0.53315,0.27812,0.048536,-0.69115,-0.76764,0.78826,-0.28308,1.1709,-0.43609,0.32914,-0.46166,-0.89523,-1.6348,-0.15548,1.0433,0.15053,1.4004,-0.46164,-0.002467,-0.18101,0.099588,-0.027969,-0.027993,-0.30857,-0.05347,0.55877,0.048634,-0.76773,-0.61467,2.7524,-0.46161,-0.48716,-0.71673,-1.0738,1.2984,-0.33402,-0.20653,0.074038,-0.10449,0.32913,0.2271,0.48216,-0.30855,-0.18103,-0.38506,2.5738,-0.20652,-1.2779,0.86474,0.048592,-1.0481,-0.99722,0.66067,-0.66575,1.1708,-0.69123,0.81379,0.17608,-0.20651,0.074087,-0.69115,1.1709,-0.4616,-0.30852,-0.15551,-0.002467,0.12505,0.25262,-0.15552,-0.079021,0.023059,1.1454,-0.79316,-0.25757,-0.35956,-0.46165,-0.079002,-0.38506,4.844,-0.35961,-2.0431,-0.94622,0.81376,-0.4616,-0.33407,-0.23204,-0.20649,-0.18103,0.71174,0.17608,0.38017,-0.41059,0.2781,0.023029,0.048536,0.099588,-0.43609,-0.10447,-0.053488,0.12501,0.023023,-0.79303,-0.334,0.22701,0.55864,-0.23209,-0.33406,2.2677,-0.53809,-0.10452,0.73729,-0.79319,-0.66565,-0.33408,-1.3033,0.76282,0.27808,0.2526,-0.10452,0.048561,0.17607,0.1761,0.53319,-0.027969,-0.002461,-0.38506,0.48216,1.4769,-0.48708,-1.8134,-0.35951,-0.13007,-0.002521,-0.15556,1.7066,0.60974,-0.35958,-1.0228,1.0689,0.27812,0.27813,-1.2013,-0.69118,0.66078,-0.56364,1.2729,-0.18105,0.71173,0.27811,-0.7167,-1.2013,-0.027993,0.35464,0.09957,0.17609,0.048549,0.12507,-0.23202,0.40566,0.15059,-0.25754,-0.64017,0.074051,0.68624,-0.25754,1.6555,-2.6298,0.68624,-0.74221,0.86483,0.12521,0.09957,-0.4617,-0.35963,-0.079033,0.30361,-0.002467,0.023065,0.22712,-0.33407,-0.027969,0.09957,0.35463,0.91584,-0.56365,-0.18103,0.048585,0.81378,-0.58914,-0.6657,-0.51264,0.3291,0.30364,-0.20654,-0.33407,-0.23203,0.40567,-0.20653,-0.69116,0.074075,0.40558,0.73734,-0.97166,-1.0738,2.0636,1.1454,0.20158,-0.46165,-0.23205,-0.28309,0.048536,0.40566,0.4822,-0.53811,-0.74214,0.023084,-0.027956,0.1251,-0.46162,-0.027962,1.732,0.074044,0.048561,-0.33407,-0.48711,0.048549,-0.027998,-0.28308,0.22709,1.4515,-1.0483,0.20151,-0.74214,-0.38493,-1.0738,2.6503,-0.6402,0.71175,-0.43612,-0.56361,-0.41061,-0.18102,0.099564,0.50769,-0.30855,-0.053476,0.45664,0.17608,-0.02798,-0.46153,0.83928,-0.28307,-0.15557,0.2526,-0.20649,-0.53812,0.55867,-0.18101,-0.46159,-0.1045,-0.66564,0.15059,0.50771,0.5842,1.7831,-1.5584,0.99232,-0.7932,-0.64017,-0.3851,-0.89522,1.2474,0.27806,0.35462,-0.41046,-0.18094,-0.18108,0.074038,1.1454,0.07402,-0.002467,-0.35957,-0.30856,0.71175,0.20161,-0.94627,0.3036,-0.10449,-0.18093,-0.1045,0.023023,-0.64017,0.074051,0.30362,-0.28303,0.25261,0.63523,-0.15553,-0.5126,0.89033,-0.35961,-0.053622,0.22713,-1.2012,0.048598,1.2218,1.1453,-0.53814,0.099534,-0.79319,-0.46159,-0.181,-0.053464,-0.053464,0.048531,0.074075,0.73726,-0.43606,-0.28304,0.074081,0.099528,-0.38513,-0.58914,0.63521,0.099564,0.20157,-0.58908,-0.66567,0.60971,-0.1045,-0.053495,0.048536,0.099552,-0.43605,0.048482,0.35466,-0.35943,0.91586,0.30353,-0.56366,-0.28304,-0.30858,-0.61471,-0.51265,1.6045,0.20161,1.2474,-0.38503,0.38016,-0.97176,-0.84426,-0.33404,0.5587,-0.38511,0.074062,0.45668,-0.027969,-0.25754,1.1709,-0.15553,-0.20652,0.12505,0.1506,0.099552,-0.20652,0.50769,-0.20654,1.2219,-0.56366,-0.89513,0.17619,-0.61472,0.55868,0.20153,0.35463,-0.28305,-0.41058,-0.74217,0.66072,-0.027944,-0.078972,-0.23204,-0.28305,0.023035,0.38014,-0.027969,0.53325,-0.10452,0.9923,-0.61466,-0.92074,-0.41061,0.96683,0.30363,-0.18101,-1.5584,0.40565,0.32915,0.68621,0.4311,-0.58918,-1.3542,-0.48705,0.074008,0.40562,0.25256,0.32912,-0.0535,1.324,-0.027987,-0.61462,0.3291,-0.33407,-0.38502,-0.33403,-0.30856,-0.079021,0.73724,0.53317,-0.66566,0.86485,-1.4308,0.09954,-0.43614,-0.64017,-0.28305,-0.078977,0.17607,0.048567,-0.027962,-0.002443,0.099485,2.2167,-0.92062,-0.232,0.25252,0.45665,-1.2269,-0.48711,1.7065,1.3239,-1.2268,-0.5891,-0.002461,-0.25752,-0.86973,-0.10449,1.9616,-0.53814,0.2271,-0.002472,-0.69118,-0.35957,-0.1045,1.4005,-0.053476,-0.13001,-0.078966,-0.48711,0.25262,0.12506,-0.30855,0.38011,1.63,-0.33417,-0.58907,-0.71652,-0.053482,-0.76779,0.25261,0.81373,-0.35963,1.426,-0.53814,-0.51258,-0.078984,-0.12998,0.78827,-0.38504,-0.002485,0.53323,0.60971,-0.66564,1.2474,-0.48711,-0.33411,-0.002479,0.17607,-0.18102,-0.92076,-0.053458,0.30363,0.25259,-0.6656,-0.4616,0.15057,1.3749,-0.53817,-0.81857,-0.41054,0.63515,-0.58919,0.73723,0.91584,-1.0993,-1.3289,2.3697,-0.20652,-0.71665,-0.79316,-0.38508,0.074002,0.048561,-0.13001,0.20159,0.1761,0.2526,0.023041,-0.10449,0.27813,0.30366,0.30361,-0.69116,0.43115,-0.23206,-0.25753,-0.58913,0.17605,0.89027,-1.6349,-0.30848,1.1964,0.38015,-0.38508,0.38005,0.074038,-0.30858,-0.79319,-0.30856,0.91583,0.60975,-0.35959,-0.5381,-0.41058,0.048549,0.35462,0.32913,0.074069,-0.12999,0.48219,0.17615,-0.71668,-0.10454,-0.10455,0.15055,0.074057,-0.002485,-0.5126,0.40569,0.43116,-0.38506,-0.23209,-0.46155,-1.2522,1.1709,0.099497,0.53314,-0.5381,-0.61469,0.048512,0.25261,1.3494,0.96681,-0.97176,-1.0482,-0.18101,-0.12999,0.2271,-0.18101,1.7831,-0.33407,-0.20652,-0.41061,-0.20653,0.43117,0.45663,0.94133,-0.15556,-0.18105,-1.3797,-0.10441,0.30352,1.1964,0.22706,0.73721,-0.69117,-0.33409,-1.0738,1.0179,0.66074,0.25261,-0.30855,-0.38503,-0.2065,0.048561,0.20158,0.17608,0.12507,0.074033,-0.38512,0.81381,-0.35956,-0.53812,0.5332,-0.1046,0.15059,-0.84411,-0.053464,2.0126,0.3546,-1.0228,-0.76769,-0.30858,-0.23202,-0.10446,0.17611,0.3546,0.09954,-0.46159,0.32915,-0.15552,3.2115,-0.97178,-0.027993,-0.71668,-0.64016,-0.38508,-0.078984,0.48216,-0.25751,0.20159,-0.10451,-0.079008,0.074062,-0.28306,0.099595,0.68615,0.43117,-0.79308,-0.89518,0.83923,-0.079033,-0.002503,-1.0483,0.89031,0.15054,0.96681,0.76279,-1.0737,-0.20651,-0.20653,-0.28309,-0.33405,-0.15546,0.17607,0.25258,0.2526,0.2271,0.12507,0.09957,-0.12998,-0.079008,-0.12999,0.2271,0.71176,-0.7422,0.15058,0.45655,-1.2013,-2.0429,0.71191,1.2983,-0.76773,-0.33413,-0.35962,-0.053513,-0.002485,0.45666,-0.86971,1.477,0.50771,0.099564,-0.30855,-0.20652,-0.13001,-0.05347,-0.10452,-0.20653,-0.13001,0.30361,0.58421,-0.20653,0.96682,-0.53811,-1.0228,-0.13003,0.45671,2.0636,-1.3033,-1.2267,-0.3086,-0.002516,0.048536,0.023047,0.27809,0.55872,0.2016,-0.002454,-0.002491,-0.41059,0.38016,-0.23203,-0.078984,-0.20653,-0.002479,-0.25756,-0.002472,0.27815,0.63523,-1.1248,1.63,0.43116,-0.64017,-0.69117,-0.61465,-0.41061,1.1709,0.074051,-0.46159,-0.71671,0.81376,0.7882,-0.23191,0.099668,-0.46163,0.073995,0.55869,-0.053506,-0.81872,-0.20655,0.55871,0.25266,0.99239,-0.46163,-0.35964,-0.41057,-0.10451,0.17614,-0.25753,-0.18104,-0.18106,0.048561,0.5587,-0.28296,0.15054,-0.053513,-0.30858,0.8393,-0.38508,-0.64015,-0.28306,-0.053476,0.048555,-0.38506,0.73725,0.099559,-0.33405,-0.027974,0.22705,0.15056,-0.92063,-0.3595,1.1453,0.20159,-0.2321,-0.58914,-0.35961,0.30362,0.15057,-1.0228,1.0689,-0.35959,-0.25749,0.17607,-0.1045,0.3801,-0.38505,-0.10446,0.63531,0.94128,-0.25759,-0.99725,0.45667,-0.51265,0.43107,-0.078892,0.15073,-0.35961,-0.079045,0.022992,-0.20654,0.96683,-0.20652,-0.66567,-0.078977,0.09957,0.63523,-0.43609,-0.30855,0.73728,0.60969,-0.76769,-0.51265,0.4567,-0.84423,-1.3799,1.2474,1.5025,-0.48708,-0.64017,-0.002485,-0.33407,-0.10449,-0.02798,0.27816,0.40569,0.30355,-0.33406,-0.76757,0.48218,0.63516,0.17607,-0.23207,-0.81873,0.53319,-0.53813,1.2984,-0.53812,-0.38506,-0.33404,0.35467,-0.053488,0.17609,-0.56365,-0.69116,1.6045,0.76275,-0.33408,0.30366,-0.89521,-1.0228,-0.079014,-0.41058,1.2729,-0.10448,0.099534,-0.23193,-0.18094,0.30358,0.022956,0.12505,0.074081,0.68628,-0.46165,-1.0228,1.4515,-0.3851,-0.53812,-0.13001,-0.20652,-0.23202,-0.99726,0.91579,0.96683,-0.69119,1.8086,0.1251,-0.7167,-0.56362,-0.3596,-0.25753,-0.053488,0.074087,0.15056,-0.20652,0.15056,0.4312,0.074044,0.73728,2.2932,-1.1503,-1.0228,-0.10463,-0.35957,-0.61451,-0.078972,0.58413,0.30358,0.099595,0.023047,0.15057,-0.053482,-0.07899,0.25262,-0.23202,0.43117,0.53318,-0.58915,-0.46162,0.04861,-0.71668,-0.10454,0.048536,-0.20647,-0.4871,-0.30855,0.48216,-0.25756,-0.23206,1.1454,0.35463,-0.56362,-0.76769,0.27813,-0.053476,-0.35954,-0.20652,0.099564,0.12506,0.12507,-0.02798,0.12504,0.023029,-0.027974,0.2526,-0.002454,-0.15553,-0.28307,-0.20651,-1.0993,2.9054,0.32913,-1.0483,0.023059,-0.58922,-0.30851,-0.61454,-0.61464,1.8341,-0.58913,-0.7166,-0.028018,0.43106,0.25255,0.76275,0.099546,0.099577,-0.15547,-0.12999,-0.15548,-0.078966,-0.07899,-0.15548,-0.13,-0.13001,0.15057,0.58419,0.35463,-0.48714,-0.79319,0.86478,-1.0228,-1.1248,0.32915,0.20158,2.0892,-0.078984,1.1454,-0.66566,-0.84421,-0.71668,-0.4106,-0.079002,-0.078984,0.17611,0.68619,0.48211,-0.002467,-0.51252,0.43123,0.15055,0.176,-0.43601,-0.64006,-0.002503,0.20151,0.12504,1.6555,0.60971,-0.43612,-0.30851,-0.2065,-0.23201,-0.12999,-0.1045,0.048536,0.15058,-0.23202,-0.25756,-0.1555,0.83928,-0.25757,-0.15551,1.0944,1.5535,-1.1248,-0.84421,-0.43612,0.074044,-0.84422,1.3749,-0.71659,-0.9461,-0.10447,0.89019,0.3546,0.4056,0.17604,-0.10444,-0.181,0.27808,-0.053476,-0.4871,-0.181,2.0127,-0.76768,-1.0228,0.40566,-0.43614,-0.97176,0.55873,0.048543,-0.28306,0.20158,0.48218,-0.18102,-0.38509,0.50769,0.55867,-0.23201,-0.35957,-0.92073,-0.027956,1.3239,0.22709,-0.66564,-0.02798,-0.23208,0.81365,-0.23201,-1.0481,-1.1248,1.528,1.63,-0.41064,-0.18108,-0.027987,-0.053476,-0.20651,-0.30855,0.1506,-0.56364,2.4718,-0.64016,-0.41055,-0.13003,-0.35955,0.81379,-0.53811,-0.053531,1.8851,-0.8187,-0.15556,-0.078977,0.12499,-0.71659,-0.86962,-0.0535,1.4769,0.94131,0.3036,-0.4871,-0.4871,-0.61462,0.32913,0.68626,-0.053513,-0.58911,-0.20647,0.20156,-0.38505,0.71175,-0.6147,1.3239,-0.30857,-0.61465,1.2729,-0.35958,-0.35957,-0.25754,0.48219,-0.28303,0.55867,0.023035,1.0178,-0.66562,-0.38503,-0.28307,-0.079051,0.17607,0.55866,1.1199,-1.3543,0.35474,-0.20658,-0.15556,0.12504,0.30358,0.45669,-0.61465,-0.99725,0.68624,-0.84417,0.27813,-0.12995,0.58421,-0.48714,-0.7422,0.25261,-0.002461,1.5025,-1.2779,-0.71673,1.2729,1.0433,-0.41056,-0.74218,-0.053476,-0.41061,0.023035,-0.078996,-0.002461,0.2526,0.023059,-0.002467,0.20164,1.2219,-0.33409,-0.30863,-0.79321,-1.2777,-0.8442,-0.23212,2.1911,1.0689,-0.99724,-0.56366,0.099497,-0.46162,-0.64015,1.1199,0.35464,-1.0482,-0.51258,-0.002497,0.53321,-0.48714,2.2422,-1.0738,-0.56363,-0.86971,0.94133,-1.0738,-0.4361,0.5587,2.6248,-0.99728,0.48216,-0.9462,-0.81871,-0.94626,0.6862,1.2984,-0.89513,-0.48702,-0.23208,0.15052,0.9413,1.4259,0.2016,-0.97176,-0.33404,-0.18101,-0.07899,0.074075,-0.25754,-0.053464,-0.13001,-0.30856,-0.64015,0.99232,1.0433,0.58419,-1.1248,-1.2268,-0.66567,-0.46159
-0.078996,-0.002472,0.023041,0.023041,0.023054,-0.027974,-0.002467,-0.05347,-0.053482,0.074044,-0.027974,-0.027987,-0.027956,0.023035,0.023047,0.099564,0.023029,-0.027962,-0.027974,-0.002467,-0.053495,-0.027974,-0.1045,0.074062,-0.002467,0.023047,-0.027956,0.12505,-0.12999,-0.053488,0.12507,-0.078977,-0.20649,0.074038,0.09957,0.099546,-0.002454,0.048536,-0.078972,-0.02798,-0.002467,-0.002461,-0.002467,-0.078972,0.15056,0.074069,-0.002485,0.048549,0.023023,-0.1045,0.023029,-0.002479,0.023035,-0.002461,0.099546,-0.053464,0.12507,-0.078984,-0.027969,0.048555,-0.027993,0.023054,0.048536,-0.10448,0.074038,-0.078972,0.12505,-0.002467,0.074062,-0.027974,-0.002472,-0.053476,-0.10449,-0.027962,0.15056,0.023041,0.12505,0.099564,-0.18101,0.074062,-0.078972,0.048531,-0.10448,0.12505,0.023059,-0.002479,0.074069,-0.079002,0.023041,0.2271,-0.053482,-0.23205,0.2526,-0.13001,-0.12999,-0.12999,0.048555,0.048555,0.074044,-0.027969,0.074038,-0.12999,0.048536,0.09957,0.023035,0.048555,-0.078972,0.023023,0.074057,-0.20649,-0.027962,-0.053495,-0.027974,0.023029,0.099546,-0.05347,-0.053476,0.048561,0.023023,-0.053464,-0.002485,-0.05347,-0.002461,-0.1045,0.023054,-0.002479,0.023035,-0.027962,-0.002485,-0.027962,0.099552,-0.13001,-0.027956,0.15056,0.074038,-0.002454,-0.10449,0.023047,-0.10449,-0.002479,0.074051,-0.13,0.023017,0.12507,-0.05347,0.12505,-0.002454,0.074038,0.023047,-0.12999,-0.13,0.09954,0.048567,-0.002461,0.099546,-0.078977,-0.053482,0.25261,-0.002461,0.96681,-0.35957,-0.4871,-0.25755,0.12507,-0.23201,-0.078996,-0.053476,-0.027956,-0.002454,0.048536,0.023054,-0.002461,0.074038,0.09957,0.17607,-0.078966,-0.053464,-0.027969,0.023029,-0.053495,-0.10447,-0.079008,-0.078977,-0.002461,0.074051,0.074051,-0.027962,0.074044,-0.002485,-0.15546,-0.079008,-0.053482,0.048536,0.099552,-0.027956,-0.02798,0.12507,0.074051,0.048549,-0.002454,0.074044,-0.027987,-0.05347,-0.053495,0.023047,0.023054,0.099564,-0.002479,-0.027962,-0.027969,-0.053476,-0.053464,0.023023,-0.002467,0.074057,-0.053488,-0.002443,0.048525,-0.053476,-0.1045,-0.002454,-0.2065,-0.002479,0.32913,-0.0535,0.074057,-0.10449,0.048555,0.023035,-0.1045,-0.10449,-0.02798,-0.027974,0.40566,-0.15553,-0.10448,0.023035,0.09954,-0.027962,-0.002461,-0.002479,-0.078966,0.048549,0.048531,-0.053464,-0.002461,0.023023,0.099559,-0.13001,0.63522,0.023054,-0.28305,-0.25757,-0.12999,-0.053476,0.12506,0.074062,-0.027962,0.048518,-0.18098,0.048531,0.3036,-0.05347,-0.15551,0.023017,-0.078966,-0.053464,-0.1555,0.048536,-0.078996,0.023041,-0.027956,-0.053482,0.099546,0.12507,-0.002467,0.048531,0.048555,-0.078972,0.074044,0.048555,-0.18102,-0.027993,-0.002461,-0.078977,0.099546,0.22712,0.023035,-0.078996,0.023047,-0.002467,-0.15551,-0.027956,-0.027969,-0.027969,-0.027956,0.074062,0.048536,-0.078977,-0.053488,-0.027974,-0.027974,-0.027969,-0.05347,0.099546,0.023059,-0.002472,-0.07899,0.099564,0.074062,-0.23202,-0.28305,0.63523,-0.1555,-0.053495,-0.13,0.099559,-0.23204,0.94134,-0.25753,-0.20653,-0.18103,-0.15553,-0.02795,0.023023,0.074075,0.048536,0.023059,0.048531,0.023047,-0.002485,-0.078972,-0.0535,-0.027956,-0.053488,0.023065,0.074038,0.048573,0.02301,0.023047,-0.002479,-0.02798,-0.10449,-0.027969,0.048543,0.048543,0.074069,0.099546,-0.078984,-0.002467,0.048536,0.048555,-0.027987,-0.002461,-0.10448,-0.053495,0.48218,-0.078996,0.099564,0.048549,-0.13002,-0.1555,-0.002479,-0.027969,0.12508,-0.002485,0.15059,-0.002467,0.023047,-0.30854,0.45666,0.35466,-0.43611,-0.20652,-0.15553,-0.078977,-0.027987,-0.12998,-0.13,0.048561,0.12504,-0.002448,0.099546,-0.002443,0.048531,0.023059,0.023029,0.074069,-0.053495,-0.027962,-0.053495,-0.10448,-0.10449,0.35464,-0.15552,-0.002472,0.099559,-0.0535,0.048561,0.048536,0.074069,-0.1045,-0.078996,-0.002461,-0.28303,0.17609,0.20158,-0.053488,0.89031,-0.079014,-0.23203,-0.23202,-0.23204,-0.053488,-0.078977,-0.07899,0.15057,0.15059,-0.181,-0.002479,-0.23204,0.71176,0.09954,-0.20652,-0.13001,-0.0535,-0.027969,0.023059,0.074038,-0.1555,-0.10447,-0.079002,0.30362,-0.053488,-0.027969,-0.078984,0.099546,0.09957,-0.027993,0.048555,-0.053476,-0.002479,0.023054,-0.07899,0.30363,-0.25753,-0.23205,0.12507,0.35465,-0.18102,-0.20653,-0.10449,-0.23204,-0.078984,-0.10449,0.15057,0.074069,0.15058,0.20158,-0.12999,-0.053488,-0.053482,-0.002461,0.074051,0.048561,-0.053482,-0.027969,-0.027956,0.048531,0.048561,-0.002472,-0.20653,-0.38506,0.96681,-0.30855,-0.15552,-0.10451,0.023059,-0.027962,0.048543,-0.027956,0.023023,-0.027969,-0.053464,0.048531,0.099577,0.023035,0.048536,-0.027956,-0.027987,0.023041,-0.02798,0.074033,-0.053482,0.048536,-0.027962,0.074038,0.074081,-0.027998,0.048567,-0.079008,-0.027962,-0.002485,-0.078977,0.074033,-0.053464,0.023047,0.023047,-0.002467,-0.078984,0.023035,-0.07899,-0.002467,0.048531,-0.078966,0.048536,0.074081,0.023029,-0.053476,-0.078984,-0.002479,0.023035,0.023029,-0.053476,-0.027956,0.023035,0.074033,-0.002454,0.023029,-0.078972,-0.002479,0.25263,0.023035,-0.20653,-0.20652,-0.23204,-0.30854,0.68622,-0.23202,-0.15551,0.048549,-0.30856,0.43117,-0.30855,-0.25754,-0.1045,0.45666,0.63523,-0.74218,0.4567,-1.2778,0.78824,0.40563,0.48219,-0.64018,-0.64018,0.50769,0.45673,-2.2471,-0.46161,1.3749,3.3135,2.5993,-1.2778,-3.0124,1.324,-0.002497,-3.0634,1.2474,2.9309,-0.84422,2.0637,0.25262,-2.2472,-1.3799,-0.53809,-0.53814,-0.61465,0.17609,0.71171,-0.76767,0.99238,4.6655,-0.7932,3.6452,-0.51252,-1.6861,-1.0229,-1.3034,-1.0993,-0.56364,-0.33406,-0.02795,-0.027962,-0.58912,0.099595,1.7066,0.76275,-0.76772,-1.5329,1.63,0.63523,1.8086,-1.0738,-1.5585,-0.002467,-0.92074,-2.1961,-0.97177,0.35467,3.4921,-1.4054,-2.0176,-0.38512,1.7831,-0.38509,-3.599,-0.76772,1.1199,1.0688,0.17607,-0.61463,1.1709,0.63523,-0.28305,2.2167,-1.2013,-1.0993,-0.51265,-0.10448,0.048555,6.9612,-1.7625,-0.51264,-3.2675,3.3645,-1.4309,-0.46162,-0.10448,-0.28306,0.25259,1.0944,1.4005,0.20161,-0.48711,0.8138,-0.66565,1.0944,-0.46162,0.40564,0.89031,-0.56365,-1.3289,1.63,0.15055,2.4973,0.43116,-3.0124,0.58419,-0.6657,-0.66565,0.30363,-0.41059,-0.46159,-0.81868,0.89031,-1.584,-0.25754,4.895,1.579,-1.1248,0.27811,-1.584,-0.51264,1.0433,0.023035,-1.0993,1.2219,-0.48711,-0.4106,-0.078977,-0.33408,-1.3543,2.9564,1.0178,1.0178,-1.2778,-0.41059,-0.3086,-0.33404,-0.30852,0.71178,-0.23212,-1.2524,1.3239,-0.002418,-0.4361,1.3239,-0.71669,-1.5839,1.3494,-0.61468,0.023084,-0.41055,1.2729,-1.0738,-1.1503,2.3953,1.9871,-0.48711,-0.48713,-0.027974,-0.99727,0.12507,-1.2778,-1.5074,4.4614,-0.027987,-0.56363,-1.2013,0.32915,1.0433,0.60972,-0.18104,-0.46159,-0.74221,0.023047,0.2016,-1.0993,-0.53808,2.2677,0.83922,0.32914,-0.69116,-0.69118,-0.61464,-0.66566,0.25263,-0.25753,0.50766,-1.1503,1.7831,-0.71668,1.3495,-0.25757,-0.79321,1.8851,-0.4871,-0.002448,-0.078953,-0.46159,-1.5585,0.38013,0.25258,-0.79322,2.0382,-0.86973,1.0178,-1.0483,-1.635,-0.38507,3.0075,-0.99726,-0.66568,-0.71668,-0.41059,0.68622,1.9106,-0.8187,-0.71671,0.32914,-0.28306,-0.10452,0.25262,0.71171,-0.078977,-0.053451,-0.41058,-0.078984,1.9616,-0.74221,0.35467,-0.35959,0.15055,-0.4361,-0.81868,-0.12997,1.0433,-0.30856,-0.30855,0.94133,1.0434,-1.2524,-0.97177,1.681,-1.0738,-1.4564,0.91581,0.58422,-0.078959,-0.41057,-0.23204,1.3494,0.50769,-1.2778,-0.002448,0.8648,-0.89524,0.17611,0.35464,0.40563,-0.92076,-0.1045,-0.48712,-1.1248,1.477,-0.027993,0.86478,0.76278,-0.4361,-1.686,0.38017,0.48218,-0.51263,0.68624,0.15058,-0.71671,-0.078959,1.0944,-0.4106,-0.89524,1.0943,0.76273,-1.1503,-0.69117,-1.3034,1.6555,0.71175,-1.2268,-0.28306,-0.15551,-0.33408,0.27811,0.35464,1.2729,-0.61463,-0.58914,-0.43608,0.12507,0.91579,1.375,-0.97174,-0.99725,-0.94624,-0.0535,-0.4106,-0.61467,2.0636,0.15058,-0.38503,-0.25755,-0.30857,-0.10447,-1.2523,1.2219,0.5077,-0.25756,-0.15554,0.55871,-0.66564,-0.23206,0.12508,-0.41057,0.63521,-0.15556,-0.13,-0.53814,0.32914,-0.33402,1.3749,0.9158,-0.28305,-0.97176,-0.23205,0.17607,-0.002454,-0.053488,-0.10449,-0.079002,0.023059,1.4005,-0.71669,-1.1248,0.76276,0.17609,1.8086,0.35464,-0.43612,-1.5329,0.53319,-0.94626,0.099534,0.25262,0.45666,-0.05347,-0.6146,-0.43609,0.074002,-0.00251,0.023059,0.023047,-0.027969,0.20161,0.099577,0.27811,-0.10445,0.3291,-0.18106,-0.1045,-0.002503,0.60972,-0.56359,-1.2523,1.4515,-0.79322,-0.33407,0.55869,0.55868,0.66074,-0.64015,0.89031,-0.81871,-0.89528,-0.25753,-0.13002,-0.10449,2.0892,-0.48708,-0.18104,-0.002454,-0.33408,-0.79321,2.1147,-0.76771,0.099552,0.09957,0.099583,-1.1758,0.48221,-0.7422,0.27809,0.17608,-0.079002,0.023047,0.048531,-0.74216,1.2219,1.0434,-0.13005,0.55873,-1.5329,-0.28305,0.55867,-0.56362,-0.0535,0.60974,-0.25756,-0.58911,0.55869,0.27813,1.0943,-0.002454,-0.25757,-0.33406,-0.25754,0.30364,-0.18105,-0.56357,-0.053464,0.32912,-0.13001,-0.46162,1.1454,0.40561,0.8393,-0.23203,-0.48711,-1.3799,2.1147,-0.30856,-1.4564,-0.43611,0.12508,0.35467,0.66072,-0.69118,0.71173,1.579,-1.0228,-0.46161,0.38019,-0.69116,-0.25755,0.048536,-0.10451,0.023041,0.048567,-0.002467,0.1506,0.12507,-0.078972,-0.10453,-0.15551,2.1912,0.15059,-0.7422,-0.61464,-0.61468,-0.23202,0.17609,0.2016,-0.48711,1.1709,-0.30856,-0.078996,-0.41056,-0.15553,0.30364,-0.56364,2.3188,0.023023,-0.71669,-0.38511,-0.28305,-0.33407,0.17609,0.40565,0.15059,0.048573,-0.15551,1.6301,-0.3341,-0.38508,-1.1503,-2.2982,3.6196,0.55872,-0.84421,-0.7677,1.1709,0.40563,-0.86972,-0.23205,-0.51262,-0.23204,0.09957,-0.43608,0.17608,0.40565,0.22708,-0.35959,1.9361,-0.84422,-0.002418,-0.23206,-0.69121,-0.51261,-0.13,0.074044,-0.1045,0.12508,-0.12999,-0.13001,0.71171,0.074044,-0.15551,0.25262,-0.61462,0.53319,0.3036,0.40567,-0.4871,-1.1248,0.48217,0.4312,-0.35956,-1.737,1.63,0.55867,-0.61467,-0.25754,-0.38506,-0.56361,0.30361,0.45667,-0.4616,1.7066,-0.18099,-0.15554,-0.28305,-0.23204,0.25262,-0.35957,-0.28306,1.0434,-0.84423,0.5332,2.0126,-0.69118,-1.6604,-0.35959,-0.33409,1.0689,-0.48714,-0.18099,-0.002467,-0.02798,0.40566,-0.053476,0.45667,-0.28304,-0.002443,0.76273,-0.25751,-0.079008,-1.0993,-0.1555,-0.25756,1.1199,-0.71667,1.1454,-0.30855,-0.20653,-0.64011,-0.13,-0.69121,-0.053482,0.12504,1.3239,-0.20652,-0.02798,-0.58914,-0.20652,-0.84421,1.9871,-0.28307,2.0637,-1.2268,-0.92076,0.38016,-0.51262,-0.25755,0.27813,-0.53814,0.71176,-0.33409,-0.15551,0.12507,0.099577,0.099552,0.048561,-0.33408,-0.078972,-0.30857,0.074069,0.78826,-0.20653,-0.30859,-0.23202,-0.71668,-1.0483,0.68623,0.4057,-0.23204,0.53323,2.7524,-1.0993,-1.2778,-0.46159,0.048592,-0.15554,0.074038,-0.10453,-0.002454,0.35464,0.27814,0.2271,0.27812,-0.71668,1.2219,0.45666,-0.56363,-0.92073,-0.18102,1.0689,-1.4819,-0.027969,1.9616,0.048543,-1.5839,-0.81871,-0.33405,0.38016,0.73726,-0.28304,-0.56366,-0.15551,0.023054,0.023029,-0.053458,0.8903,0.099546,0.023059,0.048536,0.30363,-0.053446,-0.23205,0.074057,0.2781,-0.92074,-0.25754,-0.74221,0.40569,2.2422,-1.1503,-0.58913,-0.43613,-0.69119,1.2984,-0.3851,-0.64012,-0.43609,-0.02798,0.20161,-0.43609,-0.13001,0.38017,0.8648,0.30363,-0.51263,0.58419,-0.41059,-0.4106,-0.002454,0.099588,-0.02798,-0.33406,0.25262,-1.1248,0.91582,0.89032,0.20161,-1.6095,1.8086,-0.69116,-0.4361,-0.41059,-0.30854,-0.027987,0.023059,0.09957,0.12505,0.71177,-0.027993,-0.1555,0.20162,0.17607,0.2016,-0.66568,0.78828,-0.10451,-0.43613,-0.5126,-0.79322,0.15059,0.63523,-0.41058,-0.43606,1.1964,-0.43607,-0.28306,-0.30855,-0.3596,0.40562,-0.20652,0.32909,0.40571,-0.66569,-0.71669,-0.4616,1.0433,-0.23204,0.86478,-0.66565,-0.56362,0.15059,-0.2065,-0.30857,0.099564,0.50769,0.25261,-0.18101,-0.23205,-0.38508,-0.69121,0.023035,-0.35958,1.375,0.43116,-0.51265,0.58422,-0.79319,1.0944,-0.30855,0.32913,-0.30854,-0.41059,-0.078996,-0.12999,-0.25753,0.048555,0.12504,-0.28302,0.2526,0.15057,0.81376,-0.69117,-0.51258,1.4004,-0.71667,-0.51265,-0.30855,-0.41059,1.3239,-0.38508,0.38013,-0.10449,-0.15551,-0.1045,-0.1555,0.30362,-0.181,1.4004,-0.53811,-0.41061,-0.4106,0.45666,-0.20652,-0.35953,-0.38508,0.78825,-0.23202,-0.079002,-0.1045,-0.1045,-0.89524,0.63524,0.60975,0.78825,-0.76769,-0.51264,-0.71668,0.15059,0.023005,-0.078984,-0.2575,-0.002436,0.023035,-0.15556,1.0178,-0.20652,-0.30856,-0.078996,-0.23205,-0.10449,-0.07899,0.023041,0.83928,0.12505,-0.28303,0.48218,-0.25754,-0.25753,-0.28307,-1.3033,2.2422,-0.74218,-0.58915,-0.66563,0.9413,0.63521,-0.53815,0.86483,-0.13002,-0.1555,-0.078996,-0.053495,-0.41061,0.78835,-0.027944,0.22708,-0.4616,-0.53816,-0.51262,0.94129,0.074051,-0.18103,-0.1045,-0.48711,0.81379,-0.48711,-0.30854,0.76277,-0.30855,-1.6605,2.4973,-0.002461,-0.53814,-0.7932,-0.35958,0.30363,0.53317,-0.35954,0.43115,1.1709,-0.6912,-0.35954,0.45666,-0.41058,-0.74219,-0.053464,0.023029,0.17607,-0.20651,0.58422,-0.28302,0.20158,-0.20652,-0.15553,-0.13,-0.43612,0.91583,-1.3289,0.76278,-0.20653,0.30365,-0.30858,-0.1045,-0.43609,-0.23204,0.074033,0.27813,0.023029,-0.35954,0.048549,0.023035,1.9871,-0.35956,-0.48713,-0.35956,-0.20653,-0.02798,-0.027962,0.35464,-0.1045,0.25263,-0.5126,-0.89524,1.732,-0.61464,0.048555,0.99237,-0.38511,-0.51258,0.22707,0.023065,0.27808,-1.4819,0.91578,0.53317,1.6046,-0.74214,-0.53815,0.58418,-0.33405,-0.25751,-0.23203,-0.12999,1.477,-0.28306,-0.84421,0.22708,-0.027969,-0.46161,-0.48712,0.58421,-0.12999,0.91583,1.8086,-0.6402,-0.30856,-0.86972,-0.76772,-0.28298,0.12506,-0.66565,-0.002467,0.45669,0.78824,-0.51262,-0.38511,-0.28306,-0.079008,0.73728,-0.23204,-0.002461,-0.23205,-0.07899,-0.002454,-0.23206,-0.027969,1.1709,0.4567,0.68623,-1.5839,-0.53812,-0.15552,-0.02798,-0.25754,-0.053476,0.63518,-0.23203,0.023084,-0.33405,0.60974,0.50769,2.2677,-0.61467,-0.86973,-0.64016,-0.4616,-0.027969,0.023029,-0.35958,0.38014,0.40567,0.09957,-0.13,-0.25753,-0.10452,0.96683,1.0688,-0.81872,-0.027993,-0.99721,0.048525,-0.53807,1.0944,-0.28311,-0.13004,0.22708,0.22712,-0.76773,0.76277,0.68625,0.3802,-0.30855,-0.15551,-0.43609,-0.41057,0.48216,0.023041,0.50767,0.43118,-0.48714,-0.18101,-0.64014,2.0637,-0.61465,-0.13002,-0.38508,-0.61465,1.0689,-0.56366,-0.30854,1.4259,0.22713,-0.66567,0.2271,-0.35958,-0.1045,-0.078984,0.2016,0.09954,-0.002472,0.17609,-0.15549,-0.23204,0.20158,-0.61465,1.1454,-0.1555,-0.89524,2.3953,-1.1503,-0.38508,-0.002467,-0.81868,0.17609,-0.53814,-0.53814,0.63521,0.30365,0.86479,-0.51262,-0.41058,0.25259,0.40566,-0.79321,-0.58913,0.53317,0.76277,-0.053488,-0.1555,0.023017,-0.28303,-0.053488,0.66073,1.7575,-1.3288,-0.97177,-0.86974,0.73724,-0.053464,0.63519,-0.23203,0.048561,-0.58908,-0.1045,0.27806,-0.35956,0.12508,0.1506,0.20157,0.2526,0.12505,-0.25754,0.5077,0.12508,0.40566,-0.76767,-0.48712,-0.25753,-0.64017,0.81377,0.20159,-0.33405,0.63523,-1.2013,-0.48713,1.7576,-1.1758,0.38016,-0.8442,-0.48713,0.02301,-0.002485,0.35461,0.074057,-0.002454,0.099595,0.35468,0.60971,-0.5891,1.0433,-0.25756,-0.18104,-0.66568,0.09957,0.89031,-0.25754,-0.61468,0.35464,0.96681,-0.66563,-0.92074,0.96685,-0.10452,-0.20653,-0.61464,0.35465,0.15055,1.2984,-0.79322,-0.43609,-0.46157,0.048536,1.2219,0.48216,-0.84422,0.17607,-0.71668,-0.0535,1.7831,-1.0228,-0.28305,-0.10454,-1.4309,3.4156,-0.66564,-1.4564,-0.23209,-0.053495,-0.35959,1.3495,-0.20652,-0.20652,-0.20651,-0.002479,0.074075,0.048549,0.023035,-0.027944,0.048555,-0.05347,-0.027974,0.07402,0.048561,0.66072,-0.53814,-1.0482,1.4005,-1.1248,0.91584,-0.76771,0.76277,0.1251,-0.7167,-0.3341,-0.35957,-0.053506,0.43116,-0.18104,0.66077,0.8393,-0.33406,0.15057,-0.48711,-0.28305,0.074057,-0.05347,-0.002497,-0.10447,-0.1045,-0.07899,0.12507,0.2271,-0.027969,0.15057,-0.15551,-0.35956,0.15057,0.099577,-0.18103,-0.078966,-0.86972,0.023023,0.58418,2.1402,-0.74221,-1.2778,1.7066,-0.18106,-1.89,-1.0993,0.38014,0.68618,0.023065,0.074044,-0.30854,-0.12999,0.1761,0.12507,0.074051,0.32911,0.12507,0.17608,-0.053464,-0.02798,-0.15549,-0.48713,-0.71668,0.66072,0.86482,0.71174,-0.89523,-1.0993,0.12508,-0.1045,-0.28308,0.91583,-0.53814,-0.23204,0.20158,0.22708,0.17611,0.38017,0.2781,-0.12999,-0.10449,0.074075,-0.51262,1.2984,-0.4106,-0.25754,-0.25752,0.53315,-0.02795,-0.35957,-0.41056,-1.3799,1.477,0.68622,0.58422,-0.94628,-0.078972,-0.4106,-0.56364,-0.18102,0.17609,0.023041,0.40566,0.2526,-0.002467,-0.078977,-0.56363,1.2984,-0.053464,0.074033,-0.181,-0.43613,-0.51262,1.2219,-0.38505,-1.635,0.66074,-0.053482,3.9002,-1.788,-0.81872,-0.69115,-0.51266,-0.13,0.048549,-0.30855,0.30361,0.76278,0.48216,-0.12998,-0.20655,0.66075,0.09954,-0.12999,0.099528,-0.61463,-0.28302,-0.10449,0.53313,-0.002454,0.25259,-0.23202,0.17609,-0.86974,2.0127,-0.12999,-1.0993,-0.74218,0.20155,-0.4106,-0.10449,1.426,0.074057,-0.41058,-0.10447,-0.00251,0.38014,0.27812,0.048555,-0.99725,0.91579,0.2781,-0.41053,1.3494,-0.89524,-0.46164,-0.13002,-0.12999,-0.10447,-0.20653,-0.02798,0.074057,1.2219,-0.28305,-0.18103,-0.23199,-0.28307,-0.18098,1.8086,-0.7167,0.32913,-0.53815,-0.97173,-0.002461,0.023054,-0.079051,-0.181,2.2167,0.68624,-0.79321,-0.56365,-0.69119,0.023029,0.35467,-0.20649,0.099546,-0.41064,0.40567,0.023029,0.99233,0.40566,-0.61464,-0.51261,-0.23206,-0.10447,-0.078996,0.023029,-0.74218,0.20157,1.7576,-0.48713,-0.89523,1.1709,-0.33407,-0.18101,0.2271,-0.43612,-0.35958,-0.027974,-0.10452,-0.20653,-0.027969,0.1761,-0.002467,-0.64014,0.63522,-0.23204,0.099564,0.074051,0.76277,-0.43608,-1.1758,0.76275,-0.20653,-0.28303,-0.02798,-0.92073,-0.99729,2.8033,1.6045,-1.5839,-0.28303,-0.53815,-0.05347,-1.533,1.0944,-0.69118,-0.33406,-0.12999,0.023023,0.71177,-0.078984,-0.71668,4.9715,-2.4002,-0.58914,-0.56361,-0.74222,0.12507,-1.0483,2.1402,0.7628,-0.64015,-0.38513,-0.15546,0.099577,-0.46165,-0.1045,-0.13001,-0.51262,0.1506,2.1147,-0.41058,-1.5839,0.6607,-0.23201,1.0178,-0.84422,-0.078996,-0.30856,-0.18104,0.35464,0.22712,0.27811,0.22711,-0.79319,-0.84419,0.78825,1.6045,-0.20655,-0.71667,-0.69119,-0.56362,-0.33409,0.83929,0.5587,-0.13001,-0.53812,0.60974,-1.3799,0.20159,-0.027987,1.5535,-0.81873,-0.41059,-0.25754,-1.1248,1.6555,-0.46161,1.0433,-0.28309,-0.51262,-0.89509,-0.20652,0.22705,0.30359,-0.28306,-0.15553,0.81379,0.48216,0.22712,-0.61467,-0.41058,-0.13001,-0.078984,-0.66564,-0.58912,0.76278,1.0433,0.58416,-0.41059,-0.64018,-0.61465,-0.25754,-0.23204,0.83928,0.58421,-0.28304,-0.84423,0.96683,-0.23203,-0.46161,-0.053495,2.3187,-0.20653,-0.99725,-0.53812,0.048536,0.15059,-0.61466,-0.23204,0.66075,0.38016,0.048555,-0.46159,-0.89526,-0.71666,0.2271,1.1964,0.17604,-0.48713,-1.0738,-0.48708,-0.7167,1.2729,0.68625,-0.10453,-0.078996,-0.079033,-0.23205,0.17611,-0.28296,-0.002448,0.38006,0.023054,0.15055,0.074062,-0.078977,-0.28305,-0.64014,0.5587,0.45669,0.38014,-0.002461,-0.23202,-0.20653,-1.0228,0.15058,0.40566,-0.33409,-0.41059,-0.18102,-0.69118,3.3135,-0.84422,-0.97176,0.099577,-0.46159,-0.28305,0.12511,-0.1045,0.023029,0.074002,0.048543,-0.23203,-0.12998,1.0689,0.38012,-0.41057,-0.10451,-0.5381,1.2474,-0.71666,-0.69119,0.81381,-0.46161,0.55871,0.099564,-0.15551,-0.13001,-0.53813,-0.12998,0.12507,0.099577,0.50767,-0.10449,-1.0738,0.76275,-0.64018,1.7321,0.48219,0.99237,-1.0738,-1.5074,-0.58916,-0.53815,2.7268,-0.99726,-1.5329,0.17609,0.048531,-0.053488,0.023065,0.099559,0.27814,0.20159,-0.13,0.023023,0.38014,-0.027956,-0.20653,-0.33405,-1.1758,0.8393,-0.33406,0.27809,4.0788,-1.9665,-1.2013,-2.0686,0.73723,-0.33407,-0.61465,-0.61467,0.94133,-0.33405,0.27812,0.12509,0.40563,0.30363,0.27813,0.20159,-0.002461,-0.002485,0.048543,-0.07899,0.074038,-0.2065,-0.46162,0.35466,0.074069,-0.92076,0.89029,-0.002472,-0.18101,-0.94622,0.2781,0.22712,0.17606,-0.30855,-0.92078,-0.64015,2.3697,1.477,-0.7422,-0.51261,-0.33407,-0.64015,1.2219,0.76277,-0.84425,-0.15555,-0.18103,-0.07899,0.15057,0.074069,-0.38502,-0.23198,0.15055,-0.00251,0.60973,-0.23204,-0.33407,1.7576,-0.28306,-0.53813,-0.25756,-0.23203,-0.69115,-0.64013,1.2474,-0.8187,-0.20656,0.32915,-0.027993,-0.12998,-0.20653,1.0944,-0.28306,-0.28304,0.50767,-0.51262,0.48218,-0.5126,-0.76771,-0.23203,1.8596,-0.51263,0.78826,-0.66567,-0.46159,-0.18103,-0.25754,-0.15551,0.099552,-0.33408,0.58423,0.86481,0.55873,-1.1248,0.78824,-0.38508,-0.46162,-0.027938,0.38016,-0.71668,-0.13002,-0.18105,1.1199,-0.20655,-0.079026,-1.6094,-0.13001,0.89033,-0.18106,1.1454,0.074057,-0.58916,-0.74218,-0.33408,0.40566,-0.1045,-0.56364,-0.07899,0.8648,2.5483,-0.35957,-1.2523,-0.38508,-0.41059,-0.20653,0.5077,0.1251,-1.8901,2.1147,0.15059,0.50771,-0.7932,-0.43613,-0.43609,0.099601,0.048549,-0.20658,-0.64014,0.15057,0.73728,-0.027962,-0.25754,0.048561,-0.56364,0.43116,-0.89521,0.17607,-0.002472,-0.23203,-0.10449,-0.002491,1.4769,-0.053415,-0.86972,0.55867,0.3036,-0.58911,-0.69116,0.27811,-0.4106,-0.28309,1.2984,-0.3851,-0.58914,0.38016,0.12509,-0.43609,0.22711,0.50769,-0.8187,-0.33406,0.15057,0.81376,-0.13,0.96682,-0.8187,-0.46159,-0.28305,-0.38507,0.15057,-0.15551,-0.25754,1.8341,-0.99725,-0.28308,0.73726,-0.20655,-1.0482,0.38016,2.8544,-0.3086,-0.64013,-0.69121,-1.0228,0.023023,0.17612,-0.078996,0.099577,0.048543,0.048561,0.20158,-0.002461,-0.20653,1.4005,-0.74212,-0.30858,-0.053555,-0.4361,-0.25748,0.40572,-0.3086,-0.46162,1.7831,-0.002467,-0.30856,-0.23205,0.048536,-0.48708,-0.35957,0.83929,0.53321,0.73723,-0.35957,-1.4054,0.4567,-0.53813,-0.079002,0.2526,-0.079014,0.30365,-0.35958,0.89031,-0.35957,0.17609,0.12509,-0.078996,-0.38508,-0.1555,-0.48714,0.074057,1.9871,-1.1758,-0.89522,-0.81873,-1.0993,1.0178,-0.18102,1.63,-0.94625,0.12507,-0.18104,-0.078984,0.68626,-0.71666,-0.20652,-0.81873,0.048592,0.45664,2.7268,0.17605,-1.2778,-0.69118,-0.28303,-0.64015,-0.61463,0.2526,-0.053482,2.8289,-0.30857,-1.3799,-0.027969,0.86481,-0.23203,-0.13003,-0.48711,0.074051,-0.15549,0.5587,-0.53812,0.63522,1.3239,-0.43612,-1.1503,-0.053482,1.0179,-0.64018,-0.4871,-0.89523,0.25262,0.68622,0.17609,-0.86974,0.32915,-0.30855,-0.13001,-0.13,0.63521,-0.33407,1.2474,-0.38503,0.20159,-0.61465,0.22707,-0.58916,-1.1248,2.6248,-0.33407,-0.64017,0.15057,-0.30858,-0.15548,-0.027956,0.27812,-0.25753,0.48216
-0.078984,-0.027962,0.023017,0.074069,-0.002485,0.048573,-0.002485,-0.10449,0.074038,-0.053476,0.074051,-0.002472,0.048555,-0.002461,0.15057,-0.053476,0.12506,0.074038,-0.46151,0.074038,-0.07899,0.074051,0.15054,0.35458,-0.10447,-0.18095,-0.0535,0.12504,-0.15551,-0.053458,-0.13,-0.027962,-0.078984,0.09957,0.048555,-0.002461,0.048549,-0.002472,-0.002467,-0.027974,-0.053482,-0.027987,0.074062,0.023017,0.09957,0.074044,-0.002467,-0.078959,0.048518,-0.002472,-0.10448,0.048536,-0.18098,0.048536,0.023047,0.22707,0.099546,-0.002467,-0.053482,-0.12999,-0.027969,-0.13,0.074051,-0.002461,-0.002454,-0.078972,0.048549,0.048536,-0.027974,-0.078996,0.074051,0.048518,-0.078947,0.17607,-0.053464,0.17607,-0.02798,-0.18099,0.023035,0.099552,-0.027962,-0.053476,0.099559,0.12505,-0.078972,0.048549,0.023047,0.048518,0.12505,0.023035,-0.181,-0.15546,0.17604,0.22707,-0.078984,0.074057,0.023041,-0.07899,-0.002454,-0.078984,-0.05347,-0.002479,-0.15548,0.17605,-0.002461,-0.05347,-0.053482,0.074038,-0.07899,0.048549,-0.02798,0.048561,0.048549,-0.053446,-0.053488,0.17607,-0.02798,-0.053476,-0.10449,0.074051,-0.13,-0.002454,0.023029,0.074044,0.023035,0.048555,0.099552,0.15054,-0.25748,0.12504,-0.10449,-0.0535,0.048549,0.074044,0.023035,-0.053458,-0.027969,-0.10449,-0.027956,-0.053476,-0.10449,-0.078984,0.099559,0.023047,0.048549,0.074062,0.074038,-0.078996,0.099559,-0.027974,-0.1555,-0.02798,0.048536,-0.1555,0.09957,0.099552,-0.027969,-0.002467,0.099546,-0.002479,-0.053464,0.099534,0.074038,-0.027956,0.023054,-0.18099,-0.12998,0.15056,0.023023,0.17606,-0.181,0.023047,0.074044,-0.05347,0.099559,-0.002479,-0.05347,-0.002479,-0.002454,-0.027974,-0.07899,0.023041,-0.13,-0.15547,0.048543,0.099546,-0.053464,-0.027969,-0.027974,-0.027974,0.048531,-0.12999,0.12507,-0.10449,-0.053464,0.074044,-0.078972,-0.027962,0.074038,-0.078984,0.023047,-0.002479,-0.027969,-0.002472,-0.027962,-0.002467,0.048555,-0.027969,-0.002485,-0.002448,-0.0535,-0.078972,0.099546,-0.1045,0.023054,0.048561,0.074057,-0.002454,-0.1555,-0.053464,-0.053495,0.048525,0.048536,0.023047,-0.053433,0.12504,-0.027969,0.048525,0.048555,0.048531,-0.078984,-0.053488,0.074057,-0.053482,0.074062,-0.002467,-0.027969,-0.12999,-0.05347,0.023054,-0.07899,0.17606,0.074013,0.048555,0.048543,0.048549,-0.027969,-0.10448,-0.15548,-0.02798,-0.027998,-0.027962,0.099546,-0.002461,-0.10447,0.074044,0.023047,-0.10449,0.048549,-0.053482,-0.053476,-0.002472,-0.002467,-0.027969,0.048512,-0.12995,0.099552,-0.002461,-0.027962,0.023005,-0.027962,0.023035,-0.002472,0.023041,0.023041,-0.053451,-0.05347,-0.053464,0.15055,-0.10448,-0.053476,-0.1045,-0.002472,-0.02798,0.15057,-0.027974,-0.02795,-0.027987,0.023047,-0.079008,0.09957,-0.027993,0.048549,-0.053476,0.023041,0.048543,-0.13,-0.12998,-0.027969,-0.13,0.20157,-0.13,-0.10447,0.12506,-0.053458,-0.002461,-0.002467,-0.002479,-0.002485,0.023041,-0.0535,-0.25748,0.12506,-0.002485,0.15057,-0.027987,0.048567,0.023017,-0.181,-0.002467,0.048536,0.048561,-0.078972,-0.078984,-0.002467,0.074051,0.023035,0.023035,-0.078996,0.12507,-0.027969,-0.002454,0.09954,-0.027962,0.048536,0.074057,0.048549,-0.07899,0.099564,-0.0535,-0.053464,0.048543,0.023047,0.023041,0.023035,-0.027962,-0.002485,-0.027962,0.074051,0.023035,-0.053464,-0.027987,0.048555,-0.002472,0.023047,-0.053458,-0.002472,-0.027962,0.023035,-0.002472,-0.12999,-0.05347,-0.05347,-0.027969,-0.002467,0.15054,0.048549,0.023035,-0.027956,-0.027987,-0.078984,0.048549,0.048536,0.048555,-0.027969,0.074062,-0.027969,-0.07899,-0.027956,-0.027974,0.023023,-0.002461,0.09954,-0.10448,0.09957,0.023054,-0.053476,0.099552,-0.078996,-0.2065,-0.053476,-0.027969,-0.002454,0.023023,0.023035,-0.002454,0.048536,0.023041,-0.20649,0.12505,0.048531,0.023041,0.099564,-0.027969,0.15057,0.048531,-0.002443,-0.027969,-0.15551,-0.078966,0.048536,-0.13,-0.002454,0.15056,0.099546,0.023041,-0.078984,-0.053482,0.048555,-0.10449,-0.053464,0.074038,-0.078966,0.12505,0.023059,0.15056,0.023047,-0.078984,0.099564,-0.13,-0.002472,0.074033,-0.078977,0.048549,-0.002461,0.074069,0.12504,-0.027969,0.20157,0.048531,-0.25752,-0.027956,-0.027969,-0.027956,0.099559,0.023035,-0.053464,0.023035,-0.053476,-0.027969,0.074044,-0.002467,-0.10449,-0.07899,-0.027962,0.048543,0.12507,-0.002467,0.023059,-0.079021,-0.18097,0.074044,0.074051,0.074013,0.048555,0.074051,0.023072,-0.13,0.099564,-0.15551,-0.15549,-0.027987,0.023054,0.12505,0.048561,-0.07899,-0.002454,-0.027987,0.048555,-0.13001,0.023041,0.074051,0.074051,0.023047,0.048536,0.023054,0.023035,-0.053464,-0.053495,0.074062,-0.053488,0.048555,-0.027962,0.023035,0.023029,0.12505,-0.027962,-0.078996,0.072198,0.25071,0.048555,-0.053495,-0.10446,-0.02798,0.099552,0.023029,0.20158,-0.10449,-0.053476,-0.02795,-0.002461,-0.002472,0.023035,-0.053495,0.099564,-0.027974,-0.02795,-0.053495,-0.05347,0.074038,-0.002461,-0.027974,0.099534,-0.078959,-0.078972,0.099559,-0.002472,0.048531,0.12509,-0.002485,-0.43609,-0.92076,1.8341,-0.79313,0.20158,0.3036,-0.079033,-0.58913,1.1964,-0.64014,-0.10452,-1.2524,0.27811,0.53314,-1.4054,0.17604,1.4261,0.30373,1.426,-1.1504,0.71168,-0.053513,-2.3236,-0.92073,-0.25763,0.68621,-0.28306,0.20166,-1.5839,0.25268,5.1501,-0.99734,-1.5585,0.63514,-0.86977,-0.86972,-2.1195,-0.181,0.55873,3.6451,-1.2779,-0.97179,0.81379,-0.66557,-0.053476,0.22708,0.30363,0.022992,0.12505,-0.15552,0.38014,-0.48711,-0.69117,1.2729,-0.61467,0.30364,-0.35957,-0.28306,-0.002467,1.528,-2.1196,4.4869,1.7576,-3.1909,-4.1602,1.5281,-0.69121,-0.99736,1.4771,0.53324,2.5483,0.12501,-0.92074,-1.1759,-0.99727,-0.48708,-0.079002,0.32912,1.9106,1.0434,-0.30854,0.099608,-1.2524,-0.4106,-0.078972,-0.76769,0.40566,-1.4309,2.4718,-0.79321,-0.181,1.2219,-0.58913,-1.2268,2.4208,-2.7318,0.38014,0.63524,-0.46159,-0.58916,-0.51262,-0.079026,0.1761,-0.23205,1.0944,2.4208,-0.92073,-1.3799,2.5738,-0.69121,-2.2216,1.6301,-0.94622,-1.3034,1.9616,-0.0535,1.1454,-2.9869,1.3239,-0.51262,-0.43609,-1.1758,-0.8187,1.0689,1.6301,-0.58915,-0.079002,-0.81869,-0.13004,-0.35961,-0.92076,0.45667,1.7831,-0.66568,-0.4361,-0.23204,-1.5074,3.186,-0.92076,-0.35957,-0.30852,-1.9921,0.2526,0.074038,2.3953,-0.99725,-0.99726,-0.97177,-1.8135,0.50768,0.09957,-0.23209,-0.027962,0.22708,0.30363,0.12512,0.048536,-0.23201,1.2984,-0.13,0.27808,0.27809,-0.51262,-1.2268,0.099564,1.8341,-1.686,0.53319,-0.76771,-1.4819,-0.25755,0.32914,1.1199,-1.0483,-0.92074,1.1964,1.6045,3.5176,-1.4054,-0.46159,-0.86972,-0.3851,0.5587,-0.92073,0.50768,-0.86971,-0.74221,-0.20652,0.71171,-0.18101,-0.33405,0.94132,-0.078972,-1.0738,2.3443,-0.46161,-0.18101,-0.33411,-0.00243,0.86477,-0.13,-0.97176,-0.58914,0.78829,1.1454,0.1251,-0.18105,-1.1248,-1.1758,0.17613,0.099564,-0.3086,-0.38508,2.2422,0.09954,-0.23204,1.6811,-0.48707,0.25262,-0.23208,-0.3851,0.91579,-0.94625,-0.33405,0.78829,-0.53814,2.3443,-0.94626,-1.4564,-1.0228,-0.4871,-0.33405,0.1761,-0.002503,0.12505,2.1147,-0.002472,-0.28304,-0.15553,-0.25755,-0.15551,-0.078947,1.1709,0.73726,-1.3034,-0.33406,-0.51265,0.074057,-0.53813,0.63523,0.63524,-0.28305,-0.94626,1.528,-0.51259,-0.51261,-0.28306,-0.23205,0.20158,0.8648,0.48218,0.09957,-0.86968,-0.23207,-0.9973,2.1147,-0.30855,-0.13001,-1.89,1.0433,-1.2778,-0.84423,0.099564,-0.13,0.73725,-0.30855,-0.053476,0.78826,0.38016,-0.64015,0.40565,0.40569,-0.28307,-0.30856,0.074026,-0.23199,-0.20652,-0.10449,0.83927,-0.41058,-0.079002,-0.079008,-0.18103,-0.48708,0.22711,-0.028005,2.3952,-0.15551,-1.0738,-0.35954,-0.48711,-0.66565,-0.46163,2.3188,-0.53814,0.40567,-0.8187,-0.10449,-0.25756,0.6607,-0.35957,-0.56362,-0.76769,1.4515,0.68625,-0.48712,0.27814,-0.28308,0.023041,-0.43609,-0.20652,-0.5126,-0.58915,1.7576,-0.84424,0.66071,-0.89522,0.76276,-0.51262,-0.23204,-0.23204,-0.078984,0.12507,-0.23205,0.32913,0.17611,0.27813,0.023035,-0.64017,3.7217,-1.3799,-1.0993,-0.6912,-0.078966,1.4259,0.25262,-0.92073,-0.56363,-0.56362,0.20158,-0.15546,0.60969,-0.3341,-0.079014,-0.25754,-0.12997,-0.30856,0.17606,0.20161,-0.053495,0.53317,0.81378,-0.181,0.1251,-0.51262,0.43113,0.15057,-0.41058,0.32914,-0.43609,-0.25756,-0.33405,0.15059,-0.35959,1.0178,-0.48714,-0.71669,0.55872,1.0178,-1.1503,1.0433,0.30363,-0.79319,0.023054,-0.38508,-0.18103,0.63519,-0.41059,-0.20653,-0.64015,0.83934,0.66075,-0.35959,-0.15553,-0.23204,0.43117,-0.18101,0.53321,-0.43613,0.048506,0.12507,-0.002485,0.023065,0.048536,-0.25753,0.15058,-0.53811,0.099595,0.55871,0.099559,0.30364,-0.48716,0.32912,-0.15554,-0.84422,-0.99727,-0.1555,0.15058,-0.28305,0.99237,0.66072,-0.23202,-1.3289,1.2729,0.8903,-0.002448,-0.4871,-0.53812,-1.1503,1.4769,0.25263,-0.38507,-0.33407,-0.15553,-0.3851,-0.38504,-0.13,0.17607,0.55869,1.0944,0.15055,-0.92073,-0.81873,-0.35955,-0.23204,0.15058,-0.41059,0.99235,0.9158,0.35464,-0.15551,-0.33407,-0.51263,0.15059,0.17607,-0.71666,0.86482,-0.28302,0.20158,-0.46163,-0.53812,-0.079014,0.45666,-0.4871,-0.51262,0.30364,1.8596,-0.92073,-0.56366,-0.41058,-0.10452,0.12509,-0.97178,1.2984,-0.35957,2.7524,-0.71666,-0.53807,-0.35962,-0.28305,-0.10452,0.2781,-0.51263,-0.23204,1.579,-0.8442,0.17608,0.22712,-0.15554,0.22708,-0.25754,-0.4361,1.375,0.53319,-0.76769,-0.48711,-0.38506,-0.30858,-0.25753,0.2271,-0.25751,-0.10451,-0.86974,1.0178,2.0381,0.22712,0.023047,-0.94626,-0.30856,-0.4106,-0.38509,0.38016,-0.12998,0.81374,-0.027987,-0.20652,-0.12998,0.32912,0.99232,-0.43611,-0.4361,-0.33406,0.76278,-0.20652,0.40566,-0.86971,0.02301,1.1709,-0.30858,-1.1247,-0.71668,-0.25755,-0.053506,-0.181,-0.23206,-0.58913,2.7268,0.20158,-0.84422,-0.30856,0.73728,-0.053537,-0.51262,-0.79316,0.15068,-0.027956,-0.25764,-0.30856,-0.053513,0.09954,-0.28306,0.12508,0.25262,-0.18101,0.25264,-0.18104,0.91584,0.45666,2.4718,-0.66569,-1.3799,-0.99729,-0.7932,-0.38508,0.15059,0.023017,1.0433,-0.078941,0.60971,0.12508,-0.13003,-0.027974,0.22708,0.71175,-0.86974,-0.10451,-0.23202,-0.74215,0.074093,0.45664,0.43117,-0.6657,-1.0228,3.8237,0.48217,-0.99726,-0.97177,-0.53812,-0.74218,0.12505,0.074069,0.83927,-0.02798,-0.41058,1.8596,-0.69116,-0.46155,-0.28304,0.12502,-0.33411,1.4004,-0.76771,-0.35957,0.17609,1.3495,-0.48711,-0.56359,-0.38509,-0.053482,-0.61467,-0.84425,-1.3288,3.4666,0.71173,-0.38513,-0.41058,-1.0483,-0.28305,0.023041,-0.23205,0.074026,0.71176,2.0892,-0.46157,-0.41061,-0.38505,0.30361,-0.41057,0.099559,-0.002454,-0.13002,-0.74217,1.4004,-0.10449,0.15057,-0.35956,-0.71668,-0.66567,1.0688,0.9413,-0.23206,-0.69118,-0.23202,-0.20652,-0.053451,-0.15551,0.86482,-0.25759,0.76276,-0.20653,-0.20652,-0.10449,-0.23197,0.25256,-0.079002,0.023017,-0.078977,0.48218,-0.33405,-0.20652,0.074062,0.12505,-0.181,-0.53815,-0.97174,2.1402,1.0179,-0.86974,-0.81871,-0.92076,0.55871,0.66074,-0.38507,-0.89522,-0.18102,0.15057,1.426,-0.15553,-0.10447,0.074038,0.074062,-0.10453,-0.027956,-0.33407,-0.30854,0.73721,1.0944,-0.53809,-0.81869,0.15049,0.76278,-0.3851,-0.35957,-0.76769,-0.46159,0.66075,-0.079008,0.2016,-0.028011,0.96685,-0.97171,0.17609,-0.20655,-0.15553,-0.078984,-0.23202,-0.20653,0.15057,0.099546,-0.002461,-0.053488,-0.078966,0.17606,-0.12999,-0.38506,0.76274,-0.18105,-0.078966,-1.2523,1.63,0.71167,-0.00251,-1.9154,-0.30847,-0.18103,-0.13005,0.17606,0.048561,0.25254,-0.20655,1.3239,0.68624,-0.10445,-0.74214,0.81378,0.20159,0.2781,-0.002436,-0.53814,-1.0483,0.43115,0.58422,-0.18103,-0.66565,0.048536,1.1964,-0.28305,0.099491,0.2526,-0.58902,0.023103,-0.56363,0.60963,1.63,-0.35961,-1.2268,0.48221,-0.5126,-0.053451,-1.0993,1.2729,-0.66569,0.83929,-0.079002,-1.7115,0.048573,0.2526,-0.38508,-0.28301,-0.078947,0.32908,0.32912,-0.10455,0.58421,0.86478,-0.30852,-0.23203,-0.74215,-0.15552,0.3036,-0.15553,0.099552,0.074069,-0.053464,-0.078966,0.099528,0.023096,-0.69104,-0.84425,0.53311,0.45662,1.3239,-0.66564,0.048531,-0.7932,-1.0993,0.32912,-0.25756,-0.23203,0.35467,0.76278,-0.56361,0.1251,0.023035,-0.079008,0.35467,0.73723,-0.35959,0.63521,-0.4361,-0.053488,-0.28303,0.074087,-0.13001,-0.079014,0.048536,-0.13004,-0.66566,-0.4361,1.4515,1.0434,0.71176,-0.74223,-0.51264,-0.89521,-0.33408,-0.1045,0.023047,-0.12997,0.99233,-0.027956,-0.13004,0.12509,0.2016,-0.002461,0.099521,-0.28305,1.3239,-1.2778,1.375,0.45665,-0.10457,-1.0738,-1.1502,-0.30853,0.022956,0.58417,1.9105,1.426,-0.86967,-0.2575,-0.35962,-0.56365,-0.13004,-0.30854,0.20156,0.023054,0.91581,0.27814,-0.15552,-0.1045,-0.53812,0.17609,0.38015,-0.35957,0.78827,0.5332,-0.002461,-0.94625,-0.94626,-0.10452,1.8851,0.17607,-0.20653,-0.79321,-0.30858,1.2984,-0.61458,-1.1246,-0.30851,0.38001,0.32905,-0.18106,1.1964,-0.002485,0.099534,0.2526,-0.23201,0.099564,-0.30852,-0.053482,-0.28303,-0.053464,-0.002467,-0.23207,0.074075,-0.0535,1.375,-0.25757,-1.7115,0.78825,0.76278,0.91579,0.48219,-0.51261,-1.0228,-0.13001,-0.66568,0.66074,0.50768,-0.12998,-0.078984,-0.07899,0.17606,0.048543,0.35456,-0.002374,-0.10433,-0.002405,-0.43615,0.25249,0.50763,-0.23207,-0.28308,-0.25751,-0.18102,-0.10447,-0.053495,-0.078953,0.048555,-0.20651,0.20161,-0.13004,0.099564,0.68624,0.099559,-0.46162,-0.18103,0.22712,-0.58916,-0.002448,0.38014,-0.86972,0.35462,0.53321,0.50768,-0.94625,-0.71667,-0.51263,-0.23201,-0.25753,0.2016,0.12508,-0.33409,0.35465,0.074051,-0.07899,-0.027987,-0.38504,-0.078984,0.32915,-0.02795,0.32912,-0.28308,-0.81866,-0.15553,-0.66568,1.426,0.15054,-0.078977,-0.28305,0.40554,0.73731,-1.3797,-0.89517,0.71163,0.17603,-0.51267,0.76276,0.27808,-0.35956,-0.18101,0.4822,-0.53812,-0.43604,0.50769,-0.13003,-0.66567,0.55873,0.81376,0.2526,-1.1758,-0.25753,-0.35956,0.89029,-0.89522,0.048543,0.5587,-0.23203,-0.56364,0.6352,0.40566,-0.33409,-0.25751,0.12506,-0.30848,0.099552,0.023017,0.099564,0.12504,0.40565,-0.76769,0.43115,0.99234,-1.0739,0.023096,-0.38494,0.45669,0.074051,-0.25754,0.099503,0.68616,-0.74221,-0.48713,-0.053476,-0.05347,0.96686,0.048598,-0.23204,-0.30852,0.43115,-0.1555,-0.002467,-0.25755,0.48219,-0.23204,0.81378,-0.41059,-0.002472,0.17609,-0.48711,-0.10449,0.68624,-0.53813,0.35454,0.20164,-1.0481,-0.33408,0.30355,0.50768,0.20158,-0.69116,0.99229,-0.76771,0.83928,-0.66565,-0.33404,-0.38505,0.1251,0.25259,0.43118,-0.51264,0.71173,-0.64014,0.3291,0.38016,-0.053495,-0.23203,-0.25754,-0.13002,-0.10452,-0.079021,0.30368,0.074106,0.4822,-0.25758,-0.10451,-0.13003,-0.76769,1.1199,1.0944,-0.81873,-0.56363,-0.12998,-0.181,-0.30854,-0.027938,0.023029,-0.00251,-0.74216,1.2219,1.0689,-0.38519,0.27814,-0.71652,-0.23198,-0.1811,-0.33413,-0.28308,0.074038,0.58422,0.2016,-0.20653,-0.28303,0.1761,0.074051,-0.30856,-0.81871,2.1147,-0.15549,-0.74218,-1.1248,0.43117,-0.027987,1.6045,-0.76772,-0.18103,-0.7167,0.32915,-0.487,0.074044,-0.079075,-0.35957,-0.0535,0.2271,-0.28306,1.2729,0.25256,-0.53807,-1.0736,-0.28308,0.17607,0.53314,0.48211,-0.56366,-0.4361,1.477,-0.23202,-0.69117,0.89031,-0.71668,-0.76769,-0.18103,1.1709,1.6045,-0.66564,-0.35961,-0.41058,-1.1503,0.2271,0.55869,0.81379,-0.28305,-0.18102,-0.053495,-0.10449,0.074069,0.074062,-0.053476,0.35464,-0.46159,0.023023,-1.2268,2.8289,0.22713,-0.97179,-0.53819,-0.89515,-0.89513,-0.53813,-0.12995,0.71166,0.48209,0.22708,0.55872,-0.02792,-0.10453,-0.23198,-0.38508,-0.3851,1.0944,-0.078984,-0.33404,-0.33407,-0.5126,-0.13001,0.12508,-0.74218,1.783,1.6045,-0.38511,0.12503,-0.79309,-1.5328,-0.2321,0.25254,0.17602,0.15057,0.20159,0.30364,0.074087,0.099595,0.074075,0.048567,0.048555,0.27809,-0.053451,-0.71667,-0.13002,0.074051,0.12506,0.27811,0.074087,-0.33407,1.3494,-0.92075,0.60973,2.0637,-1.0483,-1.5839,-0.66565,-0.4106,0.048549,0.76277,0.22708,0.27813,0.35465,0.63515,-0.181,-0.51244,-0.027969,0.48211,0.1505,-0.002491,-0.07899,0.099552,-0.00251,-0.027974,-0.18102,-0.51257,-0.86972,0.66072,0.55873,0.074093,3.1095,-0.53812,-0.71674,-1.0738,-1.0228,-0.20652,0.074075,0.63514,0.50765,-0.48697,-0.027925,1.0433,0.94127,0.76272,0.099564,-0.002472,-0.28305,-0.58913,-0.81872,-0.46159,2.1147,-0.69116,-0.56361,-1.2779,0.89031,-0.41061,-0.18103,0.30363,0.3291,0.96685,-0.38508,-0.53812,-0.053506,0.099559,0.074051,0.023035,0.17607,-0.18095,-0.30849,0.023047,0.17604,0.58409,0.074013,-0.5635,-0.53809,-0.64023,0.099528,1.4259,2.3442,-0.94625,-1.6094,-0.053476,-1.0483,-0.58908,0.15051,-0.15544,-0.61451,0.023023,0.60963,1.681,-0.30855,0.20151,0.023029,-0.027993,-0.002454,-0.84418,0.89033,-0.13001,-0.81872,-0.28303,-0.10453,-0.25753,-0.15551,0.99235,-0.41058,-0.20653,0.58422,-1.2779,0.68625,0.12509,0.53318,-0.58916,-0.56366,-0.41057,0.27803,-0.25747,0.30376,1.1964,0.20152,-0.18106,0.15053,0.25263,0.43116,-0.23203,-0.56362,-0.18105,0.22711,-0.79309,0.8393,-0.38519,-0.97178,0.71174,-0.15548,-0.53814,0.20159,0.22708,-0.41058,-0.078996,0.099564,-0.027974,0.048536,0.38014,0.20159,0.20162,-0.053488,-0.078959,0.048543,-0.078972,0.12504,-0.30857,0.45666,-0.66568,-0.23203,0.176,0.25268,-0.35942,-0.92074,0.60963,0.9413,1.2218,-1.941,-0.43598,-0.46154,1.1708,1.3494,-0.61468,-0.23203,-0.38506,-0.05347,0.074087,0.25263,0.2271,-0.28305,0.2271,-0.027962,-0.079008,0.30363,-0.002485,-0.027969,-0.18101,-0.053476,-0.053476,-0.053482,-0.028054,-0.51259,-0.41041,1.0689,0.022998,-0.64023,-0.33411,-0.10456,0.7373,-0.43609,1.1964,-0.81869,-0.86972,0.12509,-0.002472,0.12509,0.22709,0.2016,0.17609,0.20159,0.15058,-0.053488,0.2526,-0.33406,-0.58915,-1.1503,3.135,-0.10452,-1.2778,1.0688,1.1708,0.023103,-1.9663,-1.2523,0.022919,0.66064,0.40558,-0.002516,0.99238,0.099583,0.15058,0.1506,0.1251,0.099564,-0.46159,-0.078984,-0.002448,-0.053495,0.76277,-0.33406,-0.053488,-0.23204,-0.053495,-0.23202,-0.28308,-0.30858,0.35465,0.30366,1.2984,-0.66569,-0.64015,-0.41057,-0.1045,-0.0535,-0.69122,-0.69102,0.71183,2.4462,-0.56368,-0.89527,0.58416,-0.053513,-0.12995,-0.58909,-0.18104,0.6352,-0.20653,-0.15549,-0.027974,-0.002436,-0.027974,0.048549,-0.027969,-0.07899,-0.027998,0.25263,0.55869,-0.23204,-1.1758,0.81376,-0.002467,0.22712,0.99234,0.96672,-1.5074,-1.5583,-0.41058,0.022974,0.25252,0.3546,0.3801,-0.002479,0.45669,-0.10447,0.048573,-0.002448,0.048543,-0.078972,-0.18101,-0.30855,-0.20652,-0.05347,0.53318,0.20159,-0.23208,-0.28306,-0.46156,-0.053531,0.50754,-0.30847,0.048708,-0.48708,0.89022,0.94126,-0.28309,0.78826,-0.58915,-0.5126,0.17608,0.40568,-0.43608,-0.07899,-0.15549,-0.027969,0.09957,-0.12999,-0.12999,-0.15551,0.22708,0.22711,-0.33405,0.86477,-0.89524,0.35467,-0.61465,-0.35957,-0.71668,-0.5126,1.0178,0.68622,0.35463,-0.66563,-0.35958,-0.33406,0.38003,-0.078892,-0.84401,-0.2065,0.20153,0.27803,0.38008,0.73718,-0.15554,-0.7422,0.81382,-0.05347,0.43121,-0.23203,-0.4871,-0.71668,-0.46161,0.5587,0.25262,-0.28306,-0.53814,-0.30859,-0.30854,-0.23204,-0.13002,0.66073,0.76276,-0.41059,0.20159,-0.28303,-0.25753,-0.002485,0.60965,-0.53808,-0.8696,0.20158,0.22705,0.40561,0.25257,-0.027987,0.58421,-0.41058,-0.48703,-0.41055,-0.002491,0.3291,0.27811,-0.61462,-0.64015,0.53318,1.0434,0.20158,-0.56361,-0.79322,0.73726,-0.79324,-0.25751,1.8596,-0.76768,0.15046,-0.23205,-0.94611,-0.12996,0.35458,0.17607,0.38011,0.30358,0.074013,0.15057,-0.15551,-0.13,0.099583,0.099577,-0.64014,-0.99726,1.4515,1.528,0.15057,-1.2013,-0.99727,0.40563,0.074075,-0.20653,0.048549,0.15057,0.43117,-0.07899,-0.71667,0.66074,0.20159,0.048592,0.32915,0.023005,-0.20652,-0.23206,-0.58924,0.81375,-1.7878,2.6759,-0.56369,-0.20658,-0.46165,-0.28306,-0.18105,-0.30855,-0.58913,1.1454,-0.43608,1.9106,-0.69115,-0.20652,-0.181,-0.027993,0.12508,-0.10452,0.22712,0.099546,-0.30855,-0.079021,0.12509,-0.002503,0.40566,0.20164,-0.51261,0.15052,-0.46162,-1.2012,0.8648,0.78818,-0.2066,-0.30858,-0.58914,0.6097,1.426,0.074087,-0.51262,-0.66563,-0.12993,-0.078996,-0.053525,0.17607,0.099546,-0.18101,0.02301,-0.15551,0.53321,0.27811,-0.30855,0.22711,-0.18103,-0.30855,-0.13002,0.48219,-0.05347,-0.5126,1.0689,0.20155,-0.51262,0.20152,0.048549,-1.6093,0.35466,-0.1301,0.94132,-0.20658,0.12504,0.048567,-0.23199,-0.15551,0.20156,0.17609,0.15059,-0.181,-0.053464,0.048506,-0.2065,-0.12998,-0.20645,0.12502,-0.30856,-0.86974,1.3239,0.94128,0.71173,1.1454,-1.2013,-0.64015,-0.10449,-0.07907,0.07413,-0.9206,-0.18103,0.66066,1.0688,0.048555,-0.28308,-0.43609,-0.13001,1.2474,0.12509,-0.20655,-0.13001,-0.43612,-0.53805,-0.23203,0.099559,0.12506,0.15056,-0.027987,0.15059,0.074069,0.45668,0.20158,-0.25754,-0.25752,-0.079026,0.048536,-0.1555,-0.28303,-0.58911,1.3749,-0.002472,-0.28306,0.63511,-0.56364,-1.0481,-0.28299,0.30352,0.7372,1.1198,0.55868,-0.58913,-0.18095,0.07402,-0.41058,-0.23205,0.4822,-0.15551,0.023029,-0.053458,-0.2065,-0.18103,-0.02798,-0.053482,-0.15553,-0.3341,0.35464,0.40561,1.7575,-1.6858,-1.1247,-0.92079,0.50762,0.76271,1.2729,-0.56362,-0.56366,-0.33405,-0.71665,1.0179,0.20165,0.048555,-0.079026,0.17604,-0.10451,0.023005,-0.38509,-0.38494,0.20159,0.3801,0.25257,0.12504,0.048555,-0.027987,-0.053482,-0.13001,-0.25751,0.78827,-0.30855,-0.30857,-0.10449,0.17607,-0.64012,-0.4361,-0.053519,0.27803,0.38025,0.023152,0.60971,-0.079057,-0.15554,-0.79322,-0.38507,-0.30855,0.048567,0.48214,0.023047,-0.12998,0.40566,0.20157,0.32913,-0.18101,-0.30858,-0.1045,-0.41057,1.7065,-0.43604,-0.5891,-0.20657,-0.4106,-0.23208,-0.23204,0.48218,0.023065,-1.3289,3.237,0.2781,-1.0228,-0.28313,-0.58906,-0.61452,0.15057,0.60964,0.22705,0.22707,0.023072,-0.35959,1.3239,-0.002491,-0.43609,-0.33406,0.55873,-0.5636,-0.58913,-0.28306,0.32912,0.099552,-0.28304,0.15057,0.023041,-0.10449,0.68624,-0.20653,-0.053488,-0.13002,-0.28303,0.048536,-0.33409,3.1349,-1.4818,-1.1501,0.27811,-0.56372,0.43115,-0.028054,-0.13003,0.048555,0.17608,-0.027944,0.83933,-0.33406,-0.28305,-0.053488,0.023035,-0.027969,0.074057,-0.078984,0.58421,-0.002491,-0.23201,-0.38508,-0.64015,0.35465,2.8034,-1.0483,-0.28305,-0.86974,-0.48711,-0.4871,0.81368,0.50776,-0.86962,-0.10451,0.074008,0.022974,1.3749,0.76278,-0.12996,-0.10456,-0.28308,-0.20652,-0.41058,0.4567,-0.58912,0.38016,-0.078977,-0.07899,-0.15546,-0.053519,-0.41058,-0.053519,0.40565,1.4259,-0.76769,0.25262,0.12507,-0.10451,-0.61463,-0.10451,0.12507,1.2218,-0.97164,-0.99713,-0.28306,0.17604,0.3291,-0.10452,0.45664,0.074062
-0.23202,0.17607,-0.13,0.12505,-0.027962,0.023029,-0.078972,0.048531,0.099564,-0.05347,0.09957,-0.05347,0.17606,-0.027974,-0.02798,-0.078977,-0.15551,0.023035,-0.027969,0.2781,-0.23202,0.17607,-0.002461,0.048531,-0.078977,0.099546,-0.027969,-0.07899,0.074062,-0.002467,0.023041,0.074075,0.074044,0.023035,-0.10449,0.099552,-0.181,0.074044,-0.078984,-0.002472,0.023059,0.099564,0.074044,-0.181,0.17607,-0.23202,-0.002479,-0.053488,0.023047,0.35465,-0.28303,-0.027998,-0.1045,0.048555,-0.053464,0.023041,-0.027974,0.074033,-0.053482,-0.05347,0.2781,-0.002448,0.074038,-0.12998,0.048536,-0.1555,0.074038,-0.002454,0.099546,-0.002448,-0.05347,0.12507,-0.027962,0.074044,-0.23202,0.048536,-0.1555,0.023041,0.099559,-0.25751,0.22708,-0.053458,-0.002461,0.25258,-0.1045,-0.078977,-0.13,-0.027969,-0.027974,0.45666,-0.33405,0.023029,-0.05347,0.15056,-0.12999,0.22709,-0.002454,-0.00251,-0.12999,0.074051,0.099577,0.048536,0.048561,-0.25751,0.048536,-0.002472,0.09954,-0.002479,0.023041,-0.20647,0.074062,0.12507,0.048531,0.023041,-0.078984,-0.13,-0.13001,0.023059,-0.15549,0.20158,0.074033,0.048543,0.15057,0.048561,0.074038,-0.078984,-0.079002,-0.053464,-0.13,0.099546,-0.078984,0.20158,-0.12999,0.023041,0.074038,0.023035,-0.3595,-0.18101,0.074051,-0.002461,0.20158,-0.002467,0.17605,-0.20652,0.074038,-0.181,0.048549,-0.027969,0.048543,-0.05347,0.048549,-0.002472,-0.027969,-0.053476,-0.002461,-0.002461,0.048536,-0.02798,0.048531,-0.002461,-0.20649,0.20159,-0.10449,-0.053482,-0.10448,-0.002479,-0.002454,-0.053482,0.15057,0.048543,0.074044,-0.28301,0.023047,-0.027993,0.15055,-0.20647,0.023054,-0.027969,0.20156,0.15057,0.15055,-0.002454,-0.027993,-0.20652,-0.10449,-0.12999,0.048549,0.048549,-0.002479,0.074062,-0.20646,-0.002436,-0.002467,0.32907,0.023035,-0.10451,-0.053464,-0.15549,0.15056,-0.13001,-0.078984,0.12507,-0.027969,-0.002461,-0.078977,-0.02798,0.074051,-0.078977,0.12508,-0.10447,-0.10451,-0.002461,-0.002461,0.099546,0.048543,-0.13,0.074051,-0.002454,0.15055,0.12504,-0.30852,-0.25751,0.023065,0.2781,-0.13,0.12505,-0.25753,0.099564,-0.12999,0.17606,-0.12999,0.099564,-0.1555,0.20158,0.099564,-0.15549,-0.2575,-0.027993,0.048518,0.074038,0.20159,-0.027956,-0.002461,-0.18103,0.099564,-0.07899,0.023035,-0.10447,0.048549,0.048555,0.17606,-0.05347,-0.02798,-0.13001,0.023041,-0.002472,-0.13001,0.15056,-0.002472,-0.15548,0.2781,-0.28303,-0.027962,-0.002461,0.17604,-0.05347,-0.078996,-0.027969,-0.002461,0.048543,0.048543,0.2526,-0.027993,0.099552,-0.15549,-0.283,-0.33401,0.074013,0.35458,0.099552,0.25259,-0.25751,-0.10449,-0.12999,-0.078996,0.099546,0.048543,0.09954,0.17608,-0.027962,-0.078935,-0.078984,0.12503,0.074038,0.17604,-0.18102,0.22709,-0.2575,0.09957,-0.13,0.074051,0.17608,-0.20649,-0.002472,0.30355,-0.002467,-0.69103,-0.4615,0.32907,0.30356,0.22705,0.15054,-0.002497,-0.078972,-0.12997,-0.1045,-0.053476,0.023035,-0.078972,-0.33399,0.048561,0.22705,0.12507,-0.25749,-0.1045,0.15055,-0.027969,-0.00251,0.22709,0.023035,-0.05347,-0.027956,0.074038,-0.027969,-0.12998,-0.053495,-0.053482,0.023054,-0.002467,-0.02798,0.22706,-0.027938,-0.66551,-0.12996,0.20155,-0.028011,0.25256,0.20155,0.048531,0.048567,0.074062,-0.1045,-0.12998,-0.10446,-0.12999,0.023054,0.099577,-0.079002,0.15056,-0.10447,0.099552,0.099552,-0.078996,-0.053495,-0.05347,0.12505,-0.078977,-0.027974,-0.078977,-0.053482,0.12505,-0.078972,-0.053488,0.20159,0.048573,-0.30855,-0.028005,-0.002448,-0.002491,0.074051,-0.002448,0.023023,0.048536,-0.078959,-0.10449,0.099552,0.074044,0.09954,0.17607,-0.38505,0.048543,0.023072,-0.027962,-0.027974,-0.053482,0.17607,-0.15552,-0.18101,0.074026,-0.078977,0.32909,-0.10447,-0.28301,0.023047,0.099577,0.12506,0.074038,-0.05347,-0.15553,0.074062,0.2271,0.12504,-0.10444,-0.002485,-0.053476,-0.18101,0.023035,-0.002472,0.12507,0.023047,0.074051,-0.078977,0.023047,-0.18103,0.17607,0.023041,-0.07899,-0.053482,-0.2065,0.074051,-0.12998,0.2016,-0.2065,0.074044,-0.13,0.22707,-0.15551,0.048531,0.099552,0.17609,-0.13,0.023047,-0.15549,-0.078984,-0.10449,0.15057,-0.30852,0.023047,0.32909,0.048531,0.023047,0.099559,0.048543,0.074051,-0.05347,-0.002461,0.023023,-0.20653,0.074044,0.17607,-0.3085,-0.12995,0.099534,0.27808,0.048543,-0.078984,0.074057,0.023035,-0.02798,-0.18101,0.099577,0.17609,0.02301,-0.12999,-0.1555,0.048531,-0.13,-0.02798,0.30358,-0.078972,0.09957,0.09957,-0.15549,-0.00251,0.17608,-0.002479,0.074051,0.048531,0.20155,0.32906,-0.25748,-0.7675,-0.33401,0.30355,0.17604,0.17604,0.15052,0.27621,0.0977,0.1232,-0.07899,0.023054,-0.1045,0.074075,-0.053458,0.074044,-0.02798,0.099564,-0.18104,0.09957,0.25259,-0.027993,-0.10449,0.023047,-0.05347,0.099515,0.048543,0.074051,0.048536,-0.078953,-0.28299,0.099546,-0.028011,0.20159,0.22708,-0.078996,0.048543,-0.027956,-0.10449,-0.1045,-0.053464,-0.053495,0.074062,0.17607,0.074081,-0.053488,0.15054,-0.10449,-0.69101,-0.28299,0.32905,0.22707,0.15053,0.099552,0.074044,0.048555,-0.053476,-0.12997,0.074051,-0.18101,-0.15551,0.023072,-0.05347,0.023035,0.048549,0.023017,-0.10448,0.048531,-0.027956,0.074044,-0.079002,-0.027969,-0.053476,-0.027944,0.048525,0.074044,-0.078996,0.15057,-0.25748,-0.002485,-0.027969,0.20155,0.048543,0.048555,-0.053433,-0.13,-0.002443,-0.053488,-0.027969,-0.079002,0.023041,0.15056,-0.053464,0.074038,0.023059,-0.027974,-0.10449,0.048555,-0.002461,0.30361,0.023023,-0.07899,-0.079002,-0.15548,-0.10447,0.023059,-0.002461,0.40555,0.023041,-0.69101,-0.20647,0.32906,0.25256,0.12505,0.074038,0.12505,-0.05347,-0.002479,-0.078959,-0.002472,0.023047,-0.1555,-0.027969,0.099564,0.12507,-0.053458,-0.028011,0.023047,0.17605,0.074051,-0.07899,-0.053482,0.048531,0.20161,-0.53804,-0.69115,0.81372,-0.20653,-0.3341,2.2422,-0.92074,-0.18103,-0.15554,-0.35964,-0.078941,1.7321,-0.30851,-1.1503,-1.1503,-0.20655,0.09954,0.66074,0.20153,0.71179,4.7165,-1.8136,-2.6553,-0.38513,0.53311,0.15062,6.2725,-2.1451,-1.9156,-4.0327,1.6046,0.99252,-2.0685,0.22702,-0.15549,-0.56383,-0.56372,1.4259,-0.053519,-1.0737,-2.2471,1.3751,1.0944,-1.2524,0.55863,-0.15554,0.96686,0.3802,0.58421,-0.41061,-0.4106,-0.56366,-0.43611,-0.66564,0.27812,0.81376,-0.20653,-0.20652,-0.43607,0.76275,1.681,-1.9921,0.40567,3.3135,1.1454,-0.81868,1.4004,-0.35954,-2.6808,-1.2524,-1.5839,-1.2013,0.27808,0.55866,0.048629,-0.23193,-0.43617,-0.51269,5.8388,1.4261,-2.9868,-2.4002,4.0277,-1.5075,-0.94627,-1.3289,-0.92078,-1.5074,-0.18094,0.55874,-0.38507,0.048525,1.0434,0.63523,0.6097,-2.5277,1.6045,1.7066,0.60967,0.25258,-0.79322,1.0943,-0.38508,-0.84419,-0.56362,0.78829,-1.4054,-0.28306,0.45661,0.074069,-0.053451,-0.053427,0.43116,0.2781,-0.28308,-1.3799,2.6249,-0.64018,-0.61467,0.89029,-1.2523,0.2271,-0.4361,-0.18101,-0.58911,-0.94625,-0.35962,0.048518,3.7982,-1.1248,-0.92073,-1.0738,-0.8187,-0.35956,-1.0483,-0.76771,4.0278,-0.89523,-0.58913,-0.64017,0.17606,0.38017,-0.64014,-0.053506,0.60966,1.7321,-1.5583,-0.35962,-0.13008,0.15055,2.1147,-1.2013,-0.81872,0.35463,-0.15551,-0.61467,-0.25756,0.30363,-0.41061,-0.25751,-0.079008,1.324,-0.86971,0.91581,-0.58915,-0.12997,-0.20658,0.38016,0.27811,0.66073,0.50769,-0.002472,-1.3033,-1.6605,1.7831,-0.79322,3.1605,0.55873,-1.2523,-1.0993,-0.69117,-0.56363,-0.002443,-0.69116,-0.51263,0.83928,1.1709,-0.64018,0.3291,0.023072,0.023127,-0.002454,0.17603,-0.028005,0.09954,0.27811,-1.2523,-0.30855,0.32915,0.86486,0.99235,-0.66574,-0.48712,-0.053378,-1.839,1.0432,-0.33411,-0.66564,0.50766,1.7065,-0.64019,0.53318,-0.94623,1.528,-0.56361,-0.35957,-0.25753,-0.48708,0.2271,0.12504,1.8851,-0.66568,-0.89524,-0.69121,1.1454,-0.41057,-1.2269,2.2932,-0.71668,-0.61466,-0.41058,-0.30857,1.7831,0.15058,-0.76769,-0.10453,-0.002443,-0.15551,0.25262,0.099559,-0.078941,0.32907,0.35461,-0.46154,-0.30841,-0.23209,0.78816,-0.69122,1.1453,0.32911,-0.84417,1.6045,-0.12996,-0.79321,-0.43606,-1.1758,0.1506,1.1199,-1.4054,0.22712,0.32912,1.375,0.68622,-0.18103,-0.48713,-0.4361,-0.15551,0.17611,-0.10448,-0.92073,1.6045,-0.053476,0.8648,0.27812,-0.1045,-0.89523,-0.53814,-0.35958,-0.15549,-0.13,0.074093,0.3546,-0.10447,0.22709,-0.12998,0.8393,0.27808,-0.38506,-0.28307,-0.41066,0.43116,0.35475,-1.5329,-0.51265,-0.46167,1.8086,-0.38511,-0.6147,2.0892,-0.5126,-1.2268,-0.94625,-0.25754,1.8086,-0.84418,0.35462,-1.0738,-0.1555,-0.028005,0.27811,0.5332,-0.078966,-0.23205,1.1454,-0.33409,-0.10452,0.023054,-0.48709,-0.51258,-0.38508,-0.46159,2.1912,-0.41061,-0.92074,-0.41058,-0.33409,1.8851,-0.56362,-0.25759,0.22712,-0.48706,0.99229,-0.41057,-0.58902,0.074075,0.94122,0.17604,0.22704,-0.35957,1.5535,-0.33404,0.27812,-0.86969,-0.84416,0.048555,0.78828,-1.0738,0.60972,-0.64015,0.45667,1.4515,-0.15552,-0.74218,-0.76769,-0.97175,1.8086,0.15054,-0.30854,0.40561,0.20158,0.25253,0.40562,-0.84403,-0.18097,0.48216,-0.053476,0.073959,-0.028029,-0.07899,0.63524,0.2271,-0.97171,0.8392,-0.97177,0.32927,-0.66547,0.27812,-0.43614,-0.7933,0.76269,-0.46167,1.8086,-0.66566,0.35456,0.45668,-0.56357,-0.15545,-0.027969,-0.20651,0.17607,0.099564,0.22708,-0.48714,0.074026,-0.51259,1.1454,0.32918,1.8341,-1.635,0.048512,-0.66567,-0.20653,-0.25753,-0.41058,-0.053495,0.96686,-0.002479,0.048536,0.22711,-0.05347,0.048573,0.17607,0.12506,0.20159,-0.10457,-0.94619,-0.12988,-0.51265,0.40561,0.074026,1.0688,1.1964,-0.53813,-0.46159,-0.8442,-0.74217,-0.18108,-0.58918,0.27819,-0.12989,0.12512,0.58413,-0.25753,-0.6657,0.20155,0.12504,-0.7167,1.5025,-0.46159,-0.8952,-0.41059,1.1709,0.30362,0.25267,-1.1758,0.2781,-0.18103,0.099461,1.0944,-1.6604,-0.48707,1.3238,-0.20655,-0.13002,-0.18104,0.09954,-0.35956,0.89031,0.32915,-0.35957,-0.15551,-0.15551,-0.1045,-0.12998,-0.53806,-0.10453,1.0178,0.55873,-1.3543,-0.53816,3.2879,-0.74221,-0.58911,-0.84422,-0.4361,-0.13001,-0.35954,0.1761,0.76277,-0.002491,0.22711,0.96681,-0.51262,-0.28307,0.45661,-0.61455,-0.64003,-0.25758,0.15054,-0.33411,-0.56367,1.732,0.94133,-1.0482,0.20157,-0.25762,-1.5584,0.43117,0.20163,-0.51261,0.68624,-0.56362,1.8851,-0.58913,-0.84421,0.27811,0.45664,0.17609,-0.4871,0.023047,0.27811,0.30355,-0.18101,-0.20648,-0.58913,2.2421,-0.74218,0.83943,-0.41058,-0.30863,0.023029,0.48216,-0.4616,-0.41055,-0.25753,-0.13001,0.09957,0.3291,0.099552,-0.078959,-0.33405,-0.15549,-0.15551,-0.05347,1.2985,1.63,-1.3544,-0.86975,0.78827,-0.7422,0.96681,-0.97175,0.91579,-0.58914,-0.51263,0.023059,-0.18098,-0.10451,0.099577,0.55862,-0.078977,-0.41044,-0.18092,0.55862,0.48209,0.074051,-0.027974,-0.079008,0.074038,-0.13004,-0.43614,1.0433,-0.00243,0.73729,-1.2778,-0.89524,0.35464,0.099552,-0.97179,-0.41057,0.15062,1.1454,-0.41058,-0.58918,0.78828,0.96684,-0.61465,-0.69119,1.2729,0.073953,-0.35956,-0.84407,-0.64017,0.58414,0.25257,-0.41059,-0.35957,0.60971,0.86478,-0.25755,-0.79315,-0.66564,0.68625,-0.56366,-0.20656,0.023023,0.30366,0.22713,-0.51263,1.7831,-0.5381,-0.28311,-0.13001,-0.28308,0.81379,-0.28305,-0.2065,-0.027956,0.20157,-0.33405,0.048549,0.78827,-0.20655,-0.48716,1.681,-0.053433,-0.89504,-1.5328,0.86469,1.1453,-0.38517,0.5842,0.35465,-0.64014,-0.33406,1.0178,-0.4871,0.023041,-0.51259,-0.20652,0.58425,0.45669,-0.4361,-0.92078,1.732,0.20163,-0.18103,-0.18106,0.38015,-0.56366,-0.74224,-0.71667,2.9819,-0.46157,-0.56365,-0.66563,-0.58913,1.2984,-0.10451,-0.23204,1.0433,-0.25759,-0.74204,-0.61454,-0.25759,0.89021,-0.053537,-0.002516,1.4005,0.074038,-0.07899,-0.3851,-0.002436,-0.35956,-0.86972,-0.23205,0.32913,-0.10449,-0.002448,0.25262,0.099559,-0.56363,0.12504,0.6862,0.73729,-0.89513,0.023041,-0.02806,0.17607,-0.58915,-0.71671,1.7831,-0.46156,-0.56361,0.20153,-0.58909,-0.53798,0.22704,0.074062,0.17602,0.023047,1.2474,0.074038,-0.58918,0.40564,-0.4616,0.2271,0.78832,-0.53813,-0.13,-0.18099,-0.86971,1.4005,-0.20656,-0.23203,-0.18104,-0.13,-0.002461,-0.23204,0.09957,-0.053519,0.50769,0.71173,-0.7677,0.78827,-0.53812,-0.81869,-0.35959,1.2984,-0.61463,-0.76767,-0.23204,0.074057,0.20159,0.074038,-0.079045,1.7065,-0.69105,-0.33397,-0.23213,-0.20657,-0.079008,1.1454,-0.053506,0.60969,-0.89524,-0.078984,-0.46159,-0.25753,-0.41053,0.023041,0.099534,0.76273,0.40566,-0.43609,-0.43611,1.0944,-0.15553,-0.28302,-0.20656,0.074069,-0.23202,-0.25755,-0.027962,0.63518,-0.38501,-0.94614,0.76271,0.96678,0.96681,-1.1248,-0.18102,-0.053525,1.324,-0.5891,-0.84418,0.17606,-0.027974,-0.69119,0.45665,-0.053476,0.099559,0.04858,0.1506,-0.94628,1.7831,0.25259,-0.15551,-0.002448,0.20157,-0.33404,-0.25754,-0.027969,0.074044,0.048531,-0.20652,-0.25756,0.074069,-0.25756,1.5535,0.35458,-0.51265,-1.3797,-0.74209,-0.053519,0.35462,0.27804,-0.35964,0.66071,0.60975,0.20159,-0.64017,0.5077,0.60973,-0.69119,-0.66566,-0.13001,0.074062,-0.35957,-0.38505,0.20162,0.17606,1.0944,0.76275,-0.51257,-1.1248,0.38009,0.15051,-0.23196,0.15074,-0.38514,-0.41064,1.0178,-0.23203,0.023005,-0.58913,0.55873,0.15065,-0.1045,0.38017,0.53318,0.048543,0.09957,-0.28309,-0.35961,0.40558,-0.20649,-1.0735,-0.053378,0.022961,0.71161,0.73715,-0.51267,0.38016,-0.12997,-0.00251,0.83933,-0.66566,-0.84422,-0.97176,0.60973,-0.334,-0.002467,0.50769,-0.76772,1.0433,-0.38503,0.50767,0.60959,0.15054,-0.89511,-0.078953,0.38005,-0.23205,1.0943,-0.15554,-0.20655,-0.12993,-0.43607,-0.079008,0.2526,0.32912,0.22713,0.40561,-0.48713,0.17592,-0.48697,-2.0938,-0.283,2.0125,0.71164,-0.58925,-0.79321,1.0179,-0.4871,-0.23207,0.27812,-0.43608,0.99235,-0.7167,0.17609,0.7883,-0.48705,-0.69117,-0.41056,0.27807,0.73723,0.3546,-0.46162,0.15056,-0.078972,-0.35959,0.40566,-0.56364,1.3749,-0.23208,-0.97165,-0.1554,0.02301,0.20153,0.30353,-0.02798,-0.23202,0.32909,0.17611,0.68629,-0.28305,-0.027987,0.099515,-0.078996,-0.35957,-0.02798,-0.053464,-0.28306,0.94133,0.2526,-0.66556,0.12498,-0.23202,-0.33401,-0.13001,-0.41066,1.1964,0.63517,0.20156,0.38016,-1.4563,-0.23202,-0.33409,-0.05347,-0.18105,-0.38502,-0.46152,0.66072,0.53312,-0.28306,-0.38511,0.074069,0.048518,-0.078947,0.12507,-0.053464,0.40564,0.22711,-0.41052,-0.33413,0.50765,-0.89512,-0.48707,-0.10456,-0.20659,1.5279,1.7576,-0.86973,-0.5126,-0.002479,-0.33405,-0.23205,-0.28295,0.15056,0.25259,-0.38497,-1.1502,1.0178,0.25247,0.27805,0.48215,0.45656,0.099564,-1.0225,-0.15551,0.30356,-0.027969,-0.46165,-0.6402,0.76277,-0.1045,1.4005,-0.13002,-0.43606,-1.0482,-1.737,1.3749,1.3239,-0.079021,-0.33407,-0.4106,-0.002461,-0.53812,-0.3851,-0.43609,0.50764,-0.15551,-0.1555,0.45682,-0.078935,0.22706,0.27803,0.048463,1.0178,-0.38503,0.53317,-1.0992,0.15059,0.5077,-0.58912,-0.28309,-0.18103,-0.027987,-0.23204,0.1761,0.099583,-0.18101,-0.43609,-0.027974,0.43114,1.1709,0.83923,-0.99738,-0.002479,-1.3797,0.0741,-0.41061,0.48219,-0.00251,-0.28317,-0.74218,1.3494,0.25258,-0.30855,-0.23202,-0.181,-0.027969,0.17609,-0.28305,-0.12996,0.12504,0.023005,-0.053439,-0.053458,0.48218,-0.58916,-0.38509,-0.10448,1.4769,-0.51261,-1.0482,-0.20653,-0.20661,0.12503,1.63,0.60969,-0.28309,-0.97176,-0.25748,1.324,-0.25753,-0.4361,-0.0535,-0.028005,0.78826,-0.028036,-0.79309,-0.078984,-0.10452,0.20154,0.38006,-0.41044,-0.69105,0.32908,0.48211,-0.15556,-0.002454,0.30356,1.0688,-0.6146,0.27808,-0.89512,-0.23199,-0.28306,0.048494,-0.028018,0.20153,0.40574,-0.76755,0.35455,0.048518,0.17604,0.71168,-0.71665,1.5279,-0.41051,-0.94611,-1.3542,0.25251,-0.0535,0.43107,0.32904,0.35461,0.30363,-0.078959,-0.79309,-0.00251,-0.43616,0.40563,0.58422,0.96683,-0.41055,-0.23203,-0.30854,-0.15552,-0.23205,-0.2065,-0.002387,0.9923,-0.97177,-0.48714,3.0329,-0.99743,-0.97161,-0.92052,-0.5126,0.27798,0.8137,-0.41066,0.15057,1.0179,0.38011,-0.027889,-0.84407,-0.027993,0.27806,-0.35951,-0.20653,0.12506,0.43114,-0.002503,-1.0993,1.6045,1.3495,-0.81871,-0.56362,-0.41061,-0.53815,0.9922,-0.58894,-1.3032,0.60963,0.073984,1.2473,-0.079088,0.68629,0.12512,-0.20646,-0.28311,-0.28305,0.63528,-0.38511,-0.30854,-0.00251,0.17609,-0.027871,-0.53809,0.125,-0.43606,0.94119,-0.20658,-1.0481,1.7066,-0.25758,-0.56366,-0.41062,0.12504,-0.10452,-0.30857,0.25266,0.68625,-0.25757,0.38015,-0.12999,1.1199,-0.10446,-0.7932,-0.35956,-0.20654,0.5587,-0.4361,-0.13002,-0.18103,0.023047,0.15062,0.27805,-0.48705,-1.0482,1.783,-0.20657,0.91573,-0.10455,-0.30857,-0.28294,-0.66562,0.12514,0.048445,-0.48714,-0.48706,1.0433,0.099528,-0.30854,-0.18101,0.09957,0.09957,-0.002461,0.099577,0.12503,-0.12998,-0.002461,0.40564,-0.35966,-0.79309,0.81389,-0.41066,-0.25764,1.4514,0.71174,-0.81864,0.099577,-1.0228,0.09951,-0.53817,-0.18103,-0.078977,0.20159,0.02309,0.074111,0.12508,0.38011,0.17607,0.20159,0.023047,0.17607,-0.078966,-0.4106,-0.283,-0.181,0.53307,-0.18101,-0.84403,-1.1247,2.4717,0.15049,0.25252,-0.15553,-0.41057,-0.10448,0.32916,-1.2522,-0.64015,0.12501,0.27809,0.76277,-0.078947,-0.079014,0.76277,-0.002461,-0.1045,-0.10449,-0.43609,0.43118,0.55866,-0.23201,0.099479,-0.28302,-0.76757,-0.4616,0.91573,-0.61467,0.22713,0.17606,-0.48714,0.71169,0.53314,0.99253,-1.3543,-0.53824,-0.078977,-0.027993,-0.25753,0.17604,0.40569,0.04858,-0.30856,0.12503,0.20158,0.1506,0.023017,-0.23203,-0.15553,-0.15548,0.53321,0.78818,-0.64011,-0.66553,-0.18103,-0.35964,0.48212,0.32915,-0.51262,-0.53818,2.1402,-0.28298,0.43121,-0.71673,-0.4361,-0.92066,0.17607,0.27803,-0.3851,-0.1045,0.66072,0.048555,0.53312,0.22709,-0.79303,-1.1757,0.89019,-0.94618,0.58421,1.3748,-0.10457,-1.0483,0.38013,0.099601,-0.053421,-0.94622,0.9158,-0.71666,0.38012,0.2526,-0.4106,-0.18101,-0.15548,0.9413,-0.25753,-0.56361,0.3292,0.02301,-0.13004,-0.027993,0.15055,0.81378,0.099448,-0.58904,-0.89509,0.12509,-0.48716,0.27807,0.27808,-0.078977,-0.81871,0.074051,0.20159,1.63,-1.2778,-0.71663,-0.25753,0.38012,2.0126,-0.79316,-0.56363,-0.15556,0.048518,-0.25749,-0.002454,0.32907,0.074069,-0.078923,-0.10441,0.099491,-0.48717,0.73723,0.2016,0.2526,-0.48708,-0.66567,-0.8442,0.83928,-0.18101,-1.6604,1.579,0.89032,-0.58909,0.023054,-0.66568,0.12503,-0.3341,-0.15558,0.55872,-0.12987,-0.25755,0.60963,-0.053525,0.22709,-0.13,0.99235,0.074044,-0.35959,-0.43606,-0.64006,-0.1555,-0.15552,0.45668,-0.078996,-0.053525,-0.02798,0.38016,0.45666,0.53319,-0.86975,0.048567,-0.35959,1.3495,-0.61461,-1.2523,0.17606,0.25262,1.1199,0.99221,-1.2777,-1.4562,0.20152,0.27805,0.53307,0.27807,0.55866,-0.69121,1.0944,0.048585,-1.5839,-0.38504,0.04858,0.048567,0.27809,-0.99727,1.6045,-0.10453,-0.43609,-0.10449,0.4567,-0.15551,-0.079002,0.17604,0.099521,-0.538,-0.25744,0.50757,-0.33407,0.27812,0.58417,1.3239,0.25259,-1.5328,-0.002503,0.099559,-0.23207,0.023029,0.71177,-0.18101,-0.28303,0.09957,0.048531,-0.002467,-0.23201,-0.002423,-0.002479,-0.46165,-0.86971,1.0178,1.8851,-0.61465,0.40549,-0.053476,-1.4561,-0.71658,-0.18115,-0.28311,3.4921,-0.38514,-0.56366,-0.43611,-0.25754,-0.232,-0.078923,0.50766,-0.002516,-0.20646,0.17608,0.048536,0.30362,0.35465,-0.86976,-0.028005,2.3697,-0.76767,-0.28302,-0.28311,-0.46151,-0.66556,0.25245,0.17607,0.15056,-0.18101,0.30358,0.45668,-0.4106,-0.15549,-0.18101,-0.30852,-0.2065,-0.25753,0.78827,-0.35956,-0.20653,-0.25753,0.17609,0.22707,0.12506,-0.53806,-0.027938,-0.41066,0.20156,2.4461,-1.1247,-1.5072,-0.30854,0.76253,-0.487,-0.25748,0.073965,1.528,-0.2065,-0.028005,-0.20649,-0.13002,0.12509,-0.43604,-0.027974,0.22709,-0.30858,1.0689,-0.053482,-0.35956,-0.38511,-0.15549,0.20152,-0.58905,-0.58901,0.68619,1.0943,-0.053544,-0.86976,1.6555,-0.64012,-0.79318,0.91581,0.58419,-0.28305,-0.35957,-0.18101,-0.38502,0.074069,0.048543,0.074057,-0.18098,0.02301,0.86476,-0.43606,0.38001,-0.079063,-0.94604,-0.63998,0.73715,-0.079063,-0.15556,-0.028018,-0.027962,0.15059,-0.078959,-0.079002,0.048555,0.15057,-0.33406,-0.64011,1.4005,-0.10452,-0.66563,-0.35959,0.40566,-0.64019,-0.46162,0.86476,0.22716,-0.41062,-0.23204,0.40563,-0.35954,-0.23205,-0.20649,0.099521,0.38001,-0.002387,0.048727,-0.51258,1.783,-0.28312,0.099503,-0.23202,-0.58913,-0.053464,-0.58914,0.4822,-0.078972,-0.23202,-0.18105,-0.027956,0.099588,0.55869,-0.69118,1.1964,-0.20654,-0.28305,-0.51264,1.4258,-0.027969,-1.2776,-0.33393,0.45647,0.099521,-0.58914,1.2474,0.074013,0.048494,-0.20647,-0.078923,0.5332,-0.61465,0.20156,-0.64013,0.99241,-0.35959,0.12504,-0.74223,0.40564,-0.25753,0.53318,-0.25757,-0.25755,-0.1045,1.681,0.073959,-0.58902,-0.61449,0.048512,0.27804,-0.053513,0.099521,0.12508,0.2526,-0.38504,-0.4871,-0.79321,2.0126,0.86481,0.20161,-1.1503,-0.4872,-0.74212,-0.61459,-0.027969,0.3291,0.17607,0.35465,0.27809,0.1506,0.30363,0.09954,-0.028066,0.12516,-0.35953,-0.35951,-0.48702,0.99227,-0.74229,0.45667,0.45667,-0.92074,0.25259,-0.23206,-0.71664,0.83933,-0.76772,0.76273,-0.43606,0.074093,0.22711,-0.35959,0.17606,-0.20649,1.0178,0.22702,-0.13002,-0.028054,-0.35949,-0.81859,0.78822,1.4514,-0.6147,-0.38511,-0.1045,-0.12999,-0.28303,-0.15551,0.60971,0.074038,-0.20652,0.43113,-0.66562,-0.4871,-0.30852,0.048487,0.27812,-0.20646,0.023017,-0.18103,0.20159,0.55864,-0.43613,0.55876,-0.28305,0.048512,0.25254,-0.89516,-0.28295,-0.078959,0.45673,0.17597,0.6607,-1.0738,0.38016,-0.64016,-0.1555,0.2271,1.6556,-1.0483,0.4567,-0.64016,-0.053495,-0.41056,0.048531,-0.12995,-0.181,0.12508,0.48219,0.0485,0.048525,0.43115,-0.18103,-0.89526,0.91581,-0.079026,-1.0737,0.58432,-0.69116,0.50765,0.81365,0.7627,-0.89522,-0.053482,-0.28303,-0.20644,-0.15551,-0.027993,-0.41055,0.55875,-0.07899,0.023035,0.12507,-0.15553,0.8648,-0.43607,0.66065,0.074057,0.76269,-1.2012,-0.94612,-0.13002,0.71163,-0.028036,-0.66571,0.023047,0.17607,0.71173,0.30369,-0.078855,-0.38509,-0.35961,-0.76771,0.3546,-0.25757,0.074038,-0.053464,-0.078984,-0.28306,1.1964,0.81377,-0.41058,-0.23207,-0.41058,-0.28298,-0.15551,0.22707,-0.027998,-0.30855,-0.30854,0.43117,0.89029,-0.002472,-0.385,-0.30853,0.12499,-0.69111,-0.7676,0.17611,0.30355,0.20153,-0.053549,-0.30856,0.20158,-0.181,0.30363,-0.4871,0.4567,-0.28303,-0.18097,0.074013,-0.46156,0.30364,0.38014,-0.53814,0.50768,0.12507,0.48211,0.81362,-0.9972,-0.89505,0.048561,-0.43616,1.1709,0.12502,0.30361,0.074111,-0.61464,-0.28307,-0.25753,-0.002485,-0.30852,0.50769
