-0.28303,-0.25759,-0.23202,-0.35953,0.35464,0.074026,-0.48713,-0.25748,0.023084,0.02301,0.099546,-0.13001,0.099577,-0.078972,0.15058,0.38013,0.15059,-0.15552,-0.4361,0.099577,-0.053513,-0.53815,-0.30854,0.32915,1.0688,-0.33407,-0.41056,-0.43611,0.023035,0.2271,0.40565,-0.002461,0.074062,0.15057,0.099564,0.45668,-0.15553,0.048543,-0.078977,-0.20654,0.048536,-0.15549,-0.079008,-0.28305,-0.078966,0.38014,-0.002472,-0.002467,0.099546,-0.15551,-0.053476,-0.53812,-0.46162,0.5587,0.89032,0.15056,-0.35956,-0.53812,-0.4361,-0.23201,0.048567,0.40561,0.17604,-0.232,-0.2065,0.09957,0.074081,-0.027974,-0.30858,-0.1045,0.25262,0.78825,-0.18103,-0.12999,0.048536,-0.30856,-0.15553,-0.41057,0.27811,0.099577,0.023035,-0.20651,-0.41058,0.099583,0.66072,-0.15548,0.20159,2.3187,-0.58914,-1.0738,-0.89524,-0.48713,-0.33405,-0.002491,0.074075,0.099546,0.048549,0.38015,0.38017,0.38015,0.30358,-0.10448,0.048531,-0.15551,-0.18099,-0.10452,-0.23203,-0.1045,-0.1045,0.074044,0.023029,-0.002448,0.2526,-0.1555,0.048531,0.074062,-0.027962,-0.10452,-0.35956,-0.053495,0.58421,0.048555,-0.002467,-0.053488,-0.15551,-0.15551,0.023041,-0.07899,-0.15554,0.12508,0.074057,0.22711,0.12509,-0.053488,-0.15551,0.074038,-0.027956,0.023029,-0.4616,-0.002461,0.5332,0.91581,-0.079026,-0.4871,-0.51263,-0.20649,0.048561,-0.1045,-0.25754,0.048531,0.023054,0.35463,0.2016,0.074038,-0.15551,0.074033,0.20163,0.43116,-0.07899,-0.41058,-0.027987,-0.15551,-0.078984,0.099577,0.25262,-0.002472,-0.18102,-0.53815,-0.02795,0.35464,-0.079002,1.1199,-0.002479,-0.5636,0.15058,0.12507,0.20161,-0.41061,-0.43609,0.20159,0.048531,0.048555,-0.027944,0.38013,0.17606,-0.20652,-0.02798,0.27814,-0.027969,-0.15553,-0.30855,-0.10449,0.35463,-0.027956,-0.30856,-0.18104,-0.28303,-0.18103,0.17608,0.48219,-0.15551,-0.35959,0.099577,0.27813,-0.81871,0.35464,0.22709,-0.33405,-0.13001,0.12508,-0.20652,0.9668,0.25263,-0.23205,-0.48711,-0.13,-0.078977,-0.027993,-0.053482,-0.15551,0.17608,-0.1045,0.2016,0.15058,-0.027974,-0.02798,-0.20652,-0.23203,-0.053495,1.7831,-0.38508,-0.51262,-0.28306,-0.28306,-0.02795,-0.053476,0.099564,0.074044,0.048543,0.2271,0.023047,-0.13001,-0.20652,0.048592,0.022998,0.023035,-0.18103,0.27814,0.074062,-0.23205,-0.078984,-0.002461,-0.05347,0.17606,-0.002454,-0.053495,-0.078977,-0.053495,-0.20651,-0.079008,0.30363,0.074038,-0.10449,-0.18102,-0.20652,0.38013,-0.053458,-0.0535,-0.027969,-0.33406,0.17607,0.09957,0.30363,-0.46161,-0.30856,0.1761,0.5587,-0.10449,-0.25754,-0.25755,0.099577,0.074038,-0.078972,-0.002472,0.048549,0.048555,-0.053488,0.38015,0.099559,-0.28304,-0.13002,-0.078972,0.099559,-0.23202,-0.027974,-0.053482,-0.027969,0.12507,0.50768,-0.1045,0.048543,-0.1045,-0.12999,0.20158,-0.027956,-0.053506,-0.1555,0.074051,-0.078972,-0.053488,-0.10448,0.12507,-0.002448,0.074057,-0.002461,-0.053476,-0.28308,0.074075,0.40565,0.45666,-0.053476,-0.35957,-0.25754,-0.15551,-0.02798,0.099552,-0.053464,0.17607,-0.18103,-0.027962,0.20158,0.17609,0.17609,-0.46162,0.5587,0.30365,0.58421,-0.41058,-0.23202,-0.02798,-0.23203,-0.48709,-0.15553,-0.181,0.099577,0.15059,0.20158,-0.15552,-0.079014,0.15057,0.78827,0.2271,-0.002443,-0.05347,-0.23204,-0.30855,-0.13002,-0.053464,-0.23205,-0.25754,0.25262,-0.002472,-0.1045,-0.15551,0.43117,0.58421,-0.20652,-0.28305,-0.10452,0.074069,-0.079002,-0.078996,0.17607,0.60974,-0.20654,-0.5126,0.048543,-0.15551,0.78825,-0.38509,-0.053495,-0.41056,0.6097,-0.20652,-0.027987,-0.053464,-0.002479,-0.33404,-0.18102,-0.053476,0.30363,0.20156,-0.15549,-0.002479,0.45669,0.27811,-0.69116,0.60973,-0.25756,-0.027956,0.023035,0.023035,0.048543,-0.027962,0.048549,-0.078984,-0.053464,-0.18103,0.023059,-0.13001,0.45666,-0.053482,-0.30856,0.22713,-0.053506,-0.002467,-0.078996,-0.10449,0.09954,0.15059,-0.0535,-0.15549,-0.10451,0.074062,0.8393,-0.002461,-0.28305,-0.51262,-0.027987,-0.66565,0.50768,0.68625,0.43115,-0.1555,-0.41061,-0.23202,-0.18103,-0.053464,0.048536,-0.078977,0.074044,0.099564,0.12506,-0.23202,0.12506,-0.002467,-0.053476,0.2526,0.15058,-0.027974,-0.2065,-0.13002,0.023054,-0.10452,-0.10449,0.53318,-0.23202,-0.28306,-0.078972,-0.053482,-0.027969,-0.18101,0.074038,0.099583,0.023035,0.099564,-0.053488,0.12507,-0.35957,0.20159,0.17609,0.09957,-0.20653,0.66076,-0.46162,-0.002454,0.074038,-0.078996,-0.10451,-0.61465,-0.25754,0.58421,-0.1045,0.09957,0.22712,-0.43611,-0.25754,1.1454,-0.079014,-0.20652,-0.18103,0.023041,0.048543,-0.28305,0.074062,0.17607,-0.12999,0.074062,0.048555,-0.053464,-0.002479,-0.027962,0.15059,-0.027969,-0.05347,-0.079008,-0.027969,-0.28305,-0.15553,0.2016,-0.002479,-0.18101,-0.002472,0.15058,-0.027974,0.048531,0.023054,0.27811,-0.053476,-0.20652,-0.079002,-0.027962,0.12507,-0.13,0.12505,-0.05347,-0.053482,-0.25754,-0.51263,1.2219,0.35467,0.099552,-0.56362,0.2781,-0.35956,-0.51262,-0.30858,-0.12998,0.15056,-0.10448,0.15059,0.12505,0.048561,-0.027956,-0.13001,0.1251,0.27809,-0.10449,0.17606,-0.002467,-0.002461,-0.13001,-0.13,-0.18101,0.20159,0.074038,0.074075,-0.18103,-0.18102,-0.053476,0.048531,-0.002454,0.12507,0.074044,-0.053476,0.048555,-0.002461,-0.25754,-0.002467,0.30362,-0.027969,-0.43609,0.30363,0.48217,-0.43609,0.074038,-0.41058,1.2984,-0.33405,-0.46162,-0.35955,-0.18102,-0.23202,-0.10449,0.074069,0.25259,0.1761,-0.002479,0.15059,0.12508,0.074057,0.023054,-0.02798,-0.20651,-0.002454,0.048549,-0.027974,-0.15551,-0.15549,0.023023,-0.078966,-0.053482,0.023047,0.023041,-0.002472,0.023041,-0.027974,0.048555,0.074069,-0.13002,0.099577,-0.13003,-0.002443,0.58419,0.30363,-0.15551,-0.38507,-0.053488,0.12506,-0.181,0.15057,0.099559,-0.002472,0.048549,0.074038,0.023054,0.048525,0.074081,0.2271,-0.02798,-0.13,-0.10451,-0.181,0.099552,-0.002454,-0.28305,-0.027969,-0.027969,0.30361,0.25262,-0.0535,-0.027974,-0.23204,0.048561,-0.027993,-0.30854,0.5842,-0.002448,-0.053482,-0.1555,-0.053482,-0.15551,0.35465,-0.13002,-0.43608,-0.58916,-0.43609,0.27812,2.0382,0.15057,-0.28302,-0.84423,0.074044,-0.71669,-0.66565,1.0943,0.048567,-1.2013,-1.2523,-1.9921,6.3744,2.4972,1.0943,-2.1451,-3.1909,-0.94627,-0.02798,-1.9411,4.895,-3.599,2.5995,0.66082,-0.86966,-1.2779,4.4103,0.12496,-1.3035,3.5941,4.5124,-3.2162,-3.2927,-6.3538,-2.4255,4.2316,-1.3292,3.9254,-3.8543,3.0842,-1.8643,0.9162,-6.8895,2.5226,11.374,4.3082,-3.2164,-6.864,-0.64026,-1.1502,-0.18087,2.2168,0.40559,2.1402,-4.5427,-5.8438,-0.33415,9.9964,9.1802,-2.8083,-5.9712,-1.4818,-1.6604,-2.1962,-2.5787,6.8591,-2.043,-0.078752,-3.1908,9.231,3.7468,3.6703,0.78828,-5.5369,-6.6338,0.40541,-0.41088,-3.0382,0.43087,0.9922,11.935,0.074057,-5.1804,-5.4355,9.7671,-4.4918,4.2065,0.6098,-1.3289,-0.92074,-0.71672,-2.1451,0.48206,-0.71684,1.2474,4.4871,-2.4766,2.8798,5.66,-3.1656,1.4005,-3.4967,-1.4309,0.58412,-0.66576,-1.7371,-3.8287,7.2674,2.829,1.5535,-3.2164,1.7066,-1.3543,-0.28308,-3.6245,2.5993,-2.4004,1.1706,-1.431,4.64,-0.18091,-0.81871,-0.9972,-2.0939,-3.3183,-1.4818,-0.58934,5.8131,4.5887,-3.0126,-1.3034,7.2419,-2.9356,-3.6245,1.0434,-3.9306,0.9923,8.0324,-2.1196,-0.33396,-7.4507,8.1345,1.6301,-1.3544,-0.46174,-1.7625,-1.5841,3.696,0.048536,-2.3491,0.48224,1.9361,-3.2418,4.6656,1.1198,-1.8391,-1.8647,-2.1961,-3.2674,-1.9664,4.6909,-1.4053,-2.145,1.5024,3.084,1.63,-4.1603,3.1094,4.2063,-2.1451,-4.2621,4.64,-0.8953,-0.48717,-1.2525,-2.0431,-1.0992,-2.9357,0.38016,5.9153,1.6047,-0.97177,-1.0993,-0.84436,-2.8086,4.2572,-0.027944,-1.3288,-1.7626,-2.5784,3.033,-2.3747,-3.7521,4.8185,0.60973,-2.4512,1.4003,-1.1503,-0.38487,-0.99692,-0.64013,0.63506,-2.0688,-1.2015,7.1396,-0.4106,-1.4309,-5.5631,1.7831,0.48229,3.7217,-0.97171,0.20179,-1.2013,-0.84435,-0.89533,-2.4511,-1.5329,-0.20669,3.2881,-1.5838,3.7727,0.15045,0.63513,-0.28298,-1.1502,-0.10462,-0.86992,2.6247,0.48226,-1.0738,-0.002381,1.0435,-0.053427,-0.69115,-1.7115,-0.64017,-0.4107,-4.1602,3.1097,-0.74204,-0.81885,1.0432,0.50757,-0.94632,-3.0889,-3.0889,7.905,1.0179,5.6857,-4.1856,0.40577,-1.38,-1.2014,-1.5583,-2.0428,0.58413,-0.71681,0.86468,4.8693,0.30351,-1.1758,-3.3182,2.0636,-1.8389,-1.099,-0.76767,0.40548,0.9157,1.4004,2.8798,-0.43618,-2.2471,0.048518,-0.8186,5.0226,-2.6043,0.22714,0.81379,-1.5584,-2.1451,-1.5839,-1.533,-0.69119,2.7014,-1.635,-0.33415,2.7013,-0.79324,3.8239,0.71197,-1.1503,-1.0739,-0.35957,-0.51255,-0.4362,0.76269,2.0636,0.55853,-0.89521,-3.7009,-2.0683,-3.6756,4.9206,0.48253,-1.5074,1.1452,4.4357,0.022943,-1.9666,-2.0176,1.8086,0.40567,-2.6807,-1.839,5.9153,-2.5787,0.15073,1.5538,-3.8542,0.86464,1.8595,-0.69116,-1.0993,-0.74225,-0.41065,0.25257,0.22707,-1.0227,-0.10452,1.426,3.7727,0.023005,-0.13,-0.76767,-2.1705,-3.8541,4.2065,6.6295,-0.58926,-1.2525,-1.4565,-0.84436,1.273,2.3187,-0.69117,-0.99711,0.40566,-0.71673,-3.1654,4.2829,-2.1706,-0.66575,3.0585,1.426,-0.58915,-0.46166,-1.9667,-1.0484,0.63517,1.222,3.6452,-1.8645,-2.9869,0.78829,-0.38512,-0.51265,-1.3799,-0.51261,-0.76771,3.7981,2.4974,-1.5584,-1.3544,-1.4563,-0.74211,3.4155,-2.0942,-1.8137,0.38011,-1.3288,-2.3236,2.0636,3.6961,-0.25755,-2.0686,2.4208,-0.46149,-2.4766,-2.0176,-0.15546,-0.51267,0.78816,-1.3545,2.6759,1.0434,0.023145,-1.38,1.4004,-1.0228,2.1146,4.3083,-0.002528,-1.3543,-2.9102,0.35487,-1.9409,-1.3544,-1.1759,1.2219,1.2473,0.89022,-0.43609,-2.3745,-1.992,4.4614,1.5025,-0.86974,-0.028066,0.58412,0.35462,-1.0483,-3.0888,-3.1143,3.1095,0.78825,5.5582,-1.1249,-1.9156,-2.1196,-0.20649,-0.76772,2.1402,-0.69119,-1.7116,1.3494,1.7321,-1.0227,-1.533,-1.4564,-3.0634,9.2568,0.78813,-1.1248,-2.145,-1.0737,-0.51262,-4.2624,0.71208,1.018,6.4253,0.86458,-0.2066,-1.3799,-1.3289,-0.12999,-1.6094,-1.3033,1.5281,-0.89521,0.71181,-1.5585,-0.66565,2.4973,-1.3034,-0.97167,0.66068,0.2015,0.66072,-2.4254,-1.5585,0.94117,2.7013,-0.89523,7.0632,-1.839,-2.0431,-1.686,-1.0484,-0.61466,-3.0888,-0.23196,0.89035,-0.46153,4.1552,1.0434,-0.58921,-1.5074,-0.86977,-1.9411,-0.3594,-1.6349,-1.4056,1.8851,1.5535,2.88,-0.51265,-0.38523,-1.7114,-0.64004,-2.349,0.074149,1.6301,0.43103,2.1401,0.20159,0.07402,-2.9104,0.48211,-0.64021,1.2221,-0.8442,-3.0888,1.8341,3.186,0.048506,-2.0431,-1.533,-2.0431,-2.0431,3.0585,5.6348,0.5842,-0.15554,-1.4565,-0.84425,-0.10457,-0.61469,-0.99726,-0.99713,-2.3234,1.5025,3.543,-0.002588,2.5482,-1.1249,3.6961,-0.74221,-2.145,-1.0737,-3.4968,-2.2216,3.3645,-0.18112,0.66072,2.3443,0.25261,0.048585,-0.66566,0.7373,0.45667,-1.2779,-4.1602,2.8799,7.3693,2.2931,-1.584,-2.4002,-3.2673,-1.9666,-0.15559,-2.0176,1.2984,2.9309,-0.81871,-4.0582,4.6909,4.3083,0.4312,-0.23205,-2.5532,0.73725,-0.74217,-1.4309,-0.002467,-0.9972,1.375,-0.33409,0.38005,0.20151,-0.078984,-0.13002,1.1965,0.63518,-0.86979,-2.0686,-2.3491,3.4922,4.844,-1.2013,-1.8646,-0.84419,-1.7626,-2.1706,-0.20648,-0.99729,-0.74218,0.30362,3.9002,-1.8645,-2.2472,-1.4054,1.7066,0.27822,1.783,-0.79319,-0.64023,-0.28311,0.099626,1.2985,-2.3747,1.579,0.53316,-0.20663,-0.71676,-0.61472,-1.0739,-2.7572,-3.4202,8.2878,1.4259,-1.0228,-0.20671,-1.1503,-0.89531,-0.079093,-0.86973,-0.97177,-0.23207,-0.12994,2.2932,-1.1247,-0.33399,-0.43609,-0.053495,2.3442,4.4869,-2.2471,-1.3035,2.8543,-0.20663,-1.6347,-3.3183,-3.395,6.3998,1.3493,-1.1759,-2.5788,1.1965,4.0533,-0.15548,-1.4054,-0.74217,-0.079057,-3.1653,5.8644,-1.89,-0.28308,0.45656,-0.51268,-0.053537,0.17619,-1.7879,-1.5584,2.5738,-0.94627,3.0329,3.3901,-1.0229,-0.79336,-1.7369,-2.3234,-3.1397,-2.1453,4.9459,3.9001,-0.99739,-1.4309,2.7524,0.76282,-4.6193,0.96686,4.2063,0.2781,1.0944,-2.8338,-0.66571,2.5738,0.1252,-1.0993,-0.078984,0.17598,-0.053544,-1.1757,-0.35956,-0.10458,-0.20655,0.91585,0.17612,0.074136,-0.25759,1.0687,-0.38506,-1.2266,0.63516,-1.7115,0.22708,4.5379,-0.69112,-0.61467,-2.2471,4.691,-2.3237,-0.9718,-2.7573,0.38018,-0.97179,0.20158,0.25262,-0.30851,-0.6147,0.30361,2.5738,-1.1758,-0.8444,1.9106,3.6197,-1.0736,-1.278,-1.6096,-1.7881,-2.3235,-0.5891,-0.028029,1.3494,-0.38501,-0.43606,2.2932,-0.79326,2.3698,-2.0686,3.5941,-0.25752,-1.9665,1.2729,-0.69123,-0.71676,-0.99725,-0.86972,-0.4616,0.43109,1.0177,0.48219,0.22707,-0.86971,1.2219,-1.3034,-1.4564,-0.12998,2.6248,4.1809,-0.38495,-1.3034,-1.533,-1.89,-0.94619,0.63515,0.15043,-0.97186,-1.3544,1.324,1.6558,0.15056,-2.6298,-0.13001,1.0944,1.0178,-0.38505,-0.66573,-0.027974,-0.35953,-0.51257,0.07402,0.20156,0.35458,-0.89526,2.5994,-0.81869,-1.3289,3.2879,-2.553,-5.1294,1.8851,7.8283,-1.482,-3.446,2.1911,-1.4564,-1.0227,-1.8644,-0.86978,-2.1196,2.7269,2.1656,1.0688,-0.48716,0.022998,0.60974,-0.02798,3.0074,-0.25751,-2.4256,-1.6349,0.30365,-2.1706,2.727,-0.51275,0.45649,-1.4054,-0.53807,-0.053304,0.3291,0.32904,-0.41061,3.0074,-0.92066,-1.4563,-1.1249,1.5026,-0.92068,-0.61457,2.038,3.1859,-1.8901,-1.3288,-1.2014,0.40552,-1.2778,3.5432,0.023096,-1.737,-2.2216,1.477,-0.86979,0.60969,0.12504,-1.2013,-1.8899,1.1964,-2.1962,2.7778,0.73728,-0.33401,-0.92077,-0.23203,-0.43596,0.96674,-0.079063,-1.1248,1.1964,4.3339,-0.89524,-0.69124,-1.9666,-3.344,2.0891,2.7269,-1.5838,-0.20646,-0.41069,-0.028114,-0.078935,-0.89509,-0.51262,-0.53823,2.3187,-0.33413,-1.1247,0.45692,1.681,-1.533,-0.61476,0.38015,0.30374,0.32912,-2.4513,1.9107,-0.7422,-0.79322,2.0891,-0.69115,3.339,-0.74209,-2.8082,-2.0942,-0.33413,-0.61466,0.60973,-0.51261,-0.38511,0.40571,0.78829,0.27809,0.20152,-0.99716,-0.99712,0.15045,0.20146,2.4717,0.099577,-0.66565,-1.3289,-1.2268,1.5025,-0.15549,0.38024,-3.7776,3.6451,-0.028042,0.15045,-0.43595,-0.86957,-1.6605,2.2677,4.3593,1.1963,-1.2014,-1.9921,-2.8338,-0.76772,0.27814,1.528,-0.76747,0.1251,1.0687,-0.33406,-1.1248,0.63532,1.6555,0.86477,-0.58913,-0.13013,-0.18106,-0.79326,-0.79311,-0.61454,-2.0431,0.60969,2.7013,-0.35964,-0.58919,-1.9411,2.88,-1.3799,0.27809,-1.4817,-1.9666,1.5534,1.7321,-0.71665,0.074033,-0.94629,-1.7625,2.1402,1.8851,-0.1555,-0.12994,-0.89516,-1.941,1.1453,-2.3492,2.1147,2.7014,-1.4053,-2.0941,0.96677,0.43107,-1.1759,0.40566,0.58422,-2.6042,1.6556,-0.5891,-0.23202,-1.1248,3.3135,0.25262,-0.97178,0.71175,-1.788,0.99233,-0.71667,-1.3289,-0.25756,0.50764,1.3495,-0.94625,-0.30853,-0.71672,1.9872,0.074044,-0.027969,-0.18105,-0.71672,0.023023,3.2626,-1.9411,-1.737,1.2729,-1.9409,1.2985,-1.3799,-0.18109,0.99229,1.5535,-1.3289,0.76283,-1.4054,2.1911,0.63523,-0.58913,-0.53813,-1.0228,1.1964,0.40582,-1.0737,0.55866,0.07394,-0.10452,-0.35956,0.04861,0.45665,-0.027907,-1.4564,2.8288,-0.76773,-0.30864,-1.5074,2.4209,-2.145,0.58414,-0.99734,-2.0177,-1.3544,3.9767,-0.15541,-1.5074,-1.0482,-0.078941,-0.43614,-0.38514,2.3697,0.86488,0.048536,-0.12997,-0.53817,-0.053586,-0.33409,-1.2778,1.5024,0.22705,1.6556,-1.7879,-0.74221,-1.3544,1.7066,0.83932,-0.053495,-1.1248,-1.1504,0.45658,0.048555,-1.8135,4.2828,1.4515,-2.0175,-0.15554,0.15054,-0.33405,-2.451,0.99228,-0.6402,0.96678,-0.002503,-1.1503,-1.4818,-0.41065,1.4004,3.0074,3.1861,-1.5074,-0.99732,-1.0483,-1.7368,-1.6093,-3.7777,6.4254,0.58413,0.17602,0.12499,-0.33405,-0.38502,-0.43609,-0.76775,0.12518,0.58424,-0.66576,1.0688,-0.1045,0.8648,1.375,-2.7062,4.895,-1.3799,-1.4054,0.15064,0.15057,-1.4054,-0.64019,-0.86976,-1.2014,0.20164,2.1658,-0.28303,0.023017,0.58421,-2.2216,1.375,2.7267,-0.20665,1.1965,-1.6349,-0.56364,-0.35968,-0.79318,-0.9973,0.96689,-0.38507,0.76277,-0.20649,-0.8442,-1.1758,0.8393,1.528,0.66065,-1.2779,1.2985,-0.7166,-1.4819,-1.1249,1.1454,1.4514,0.30356,-0.97176,-1.2267,0.20153,-1.2524,-1.5075,4.0787,2.3698,-0.28294,-1.6093,-0.74225,0.63518,-2.0176,3.0839,0.53317,-2.2217,0.5077,4.4359,-0.41048,-1.2523,-0.71676,-1.737,-1.2013,1.7066,0.83933,0.4821,-1.0738,-0.232,-1.2012,-0.10455,-0.053513,-0.64018,0.73721,3.7727,-1.0738,0.50768,-0.94623,-1.5329,1.3495,-1.788,0.48225,-0.41052,2.7523,-2.3492,3.0074,1.3494,-0.56369,-1.0483,-1.7368,-2.5787,0.83925,1.4259,-0.89528,3.186,0.20156,-0.8187,-0.46159,-0.94617,-0.79321,3.135,0.40572,-0.89522,-0.053544,-1.3798,-1.0227,1.783,-0.56367,1.3495,1.9616,0.91579,-1.4565,-1.635,-1.6858,-0.079008,0.58422,-0.86969,0.35458,2.2932,0.38006,-1.686,2.6758,0.048549,-0.84411,-2.6041,4.0277,-2.4002,-1.9921,1.7831,0.94124,1.63,0.30361,-1.686,-0.86974,-1.4309,-1.4054,2.7524,-0.58918,0.38013,-0.23198,-1.0226,0.30358,-0.15559,-1.8646,0.89031,3.5687,-0.69121,-1.1247,0.81373,-1.3033,-0.76772,-0.89526,0.20156,-0.99727,0.55866,-0.10445,-1.0992,0.53315,4.3338,-0.84418,-0.97162,-3.4969,3.7726,-0.002467,1.3494,-0.053586,-0.92083,-1.4054,-0.7932,-0.48708,-0.74218,-0.71668,0.78834,-0.33402,4.1043,-0.86977,1.0178,-1.4564,0.43112,1.4259,-1.4564,-1.9155,-0.33415,-1.2013,-0.23199,2.6248,1.7576,-1.9664,1.5025,-0.053549,-1.1249,-0.71671,1.0433,-0.13004,-1.0482,0.60976,-0.20646,0.96676,0.99232,-0.61457,-1.2524,-0.15553,-0.18105,-0.5126,0.9413,1.63,1.0179,-0.56369,1.3494,-1.3543,-0.94617,-1.0228,-1.686,1.7575,-1.2779,0.17614,1.6555,0.32909,0.25256,-2.0175,-0.92064,1.681,-3.1655,6.0938,0.71176,-1.3798,-1.3034,-1.7625,-1.0737,1.6045,-0.28313,-0.41068,-0.66556,-0.078886,2.1401,0.20163,-0.23207,-0.89521,-0.48708,-1.3034,1.0944,-0.74218,1.783,-0.002528,-1.3289,-0.53806,0.22707,-1.7115,3.5687,-0.51262,-0.81877,-1.737,-0.38503,-0.28302,1.0433,0.38016,-0.15553,0.023078,0.17606,0.32907,-0.07899,-0.79319,-1.1247,3.6451,-1.0227,1.2984,-0.18104,-0.25757,-1.3799,-0.9973,2.3952,0.099497,-1.4564,0.30365,-0.51248,-2.1961,4.2064,-0.181,-0.99733,-0.5637,0.12504,0.35466,-0.74218,-0.89521,1.477,0.12516,1.0179,-2.6807,-0.38508,3.0584,-0.027969,-0.81873,-0.99735,2.2422,0.30363,-1.9409,-1.0992,-0.10455,0.073971,-0.25755,0.35456,0.32912,0.1251,-0.028029,0.15059,-0.64009,0.86488,-0.33404,1.1199,-1.6095,1.8595,-0.64024,0.73723,3.0841,-2.9357,-1.0483,0.96679,1.2729,-0.56362,-0.94628,-1.0483,-1.7113,-0.66564,1.8085,-2.9869,4.2573,0.66067,5.9664,0.71181,-2.1961,-2.4257,-1.8134,-0.74219,-0.81876,-0.5892,-0.07899,0.63521,0.38015,-0.30854,0.66072,2.0637,3.7982,-0.79322,-2.0175,0.099626,-0.99727,-1.5585,1.2984,0.43115,-0.81874,-1.0483,0.91576,1.4005,-0.28295,-0.74223,-1.2779,1.0688,-0.027969,1.2475,-0.25754,-1.584,-3.0889,4.4104,5.4307,-1.1248,-3.2165,0.89033,-1.635,-1.6095,1.12,-1.6604,-0.86977,1.0943,1.0179,0.9413,1.681,-0.18099,-0.7676,0.83922,1.069,-1.6604,-0.13009,-0.23215,-0.41059,0.074087,-1.1247,0.81365,-0.10456,-0.48698,-0.99704,0.20148,0.22696,-1.6094,-1.2268,2.4718,1.4514,0.22704,-1.2013,-0.20646,-1.1504,1.0432,1.9106,-1.6601,-2.4255,-1.0739,-0.35969,7.012,1.1963,-1.4818,-1.2523,-1.6095,-0.89523,-0.48716,-1.1759,1.5791,-2.7573,3.3646,1.5535,1.8597,-1.8391,-1.6606,-0.002552,-0.97168,0.89024,-1.584,1.3495,-1.4818,0.25256,-0.41068,1.9105,0.32914,-1.3287,-0.13004,0.27806,0.25259,-0.79309,2.7778,-1.3034,-0.38514,-0.23196,-1.0226,-1.5329,2.1911,-0.58922,-0.64025,1.783,1.9617,-0.74203,-0.86983,-1.1503,-1.2777,-1.0227,-0.53816,3.0074,3.0329,-1.839,-3.7775,0.71171,2.0638,-1.0483,-0.053495,-2.2217,-1.9921,2.4973,2.1402,-0.00243,-1.2014,-1.635,-1.5074,-0.078892,-0.61454,1.5024,0.45662,-0.43612,0.15062,0.63515,1.2729,0.048573,-0.6402,-0.41063,1.6303,-2.0683,-0.9974,0.12483,3.7215,-0.079075,-1.5073,-2.8338,-0.66565,5.1501,-1.2012,0.27817,-0.15548,-0.71673,-1.0738,-0.56352,-0.94612,0.86471,0.12503,-1.2014,-0.38513,4.3083,1.5025,-1.5585,-0.76767,2.2422,-0.25753,-1.2268,-1.0992,-1.1248,-1.0738,-1.0993,0.40561,-1.0226,0.35466,-0.20655,0.91588,-1.1755,1.0432,0.022894,3.0074,0.20155,-0.43612,-0.28307,-1.0993,-0.69114,0.12508,-1.737,0.7373,-0.15543,1.0944,1.3494,-1.2013,-0.30861,-1.1503,-0.9719,1.5789,-0.48706,-0.97157,-0.20648,-2.0176,1.5024,4.4613,0.99226,0.43108,2.2423,-1.6348,-0.94614,-1.2013,-1.4055,-0.0535,-0.15553,0.83931,-0.35965,-0.35955,-0.48685,-1.3797,-0.15559,1.1198,0.50765,-0.028018,0.43112,-0.79331,1.1964,-0.48704,-0.38504,0.4057,-0.33409,1.6811,0.099515,-0.56366,0.15066,0.12512,-0.89523,-0.8698,-0.6912,-0.28303,0.099521,0.15064,0.45662,-1.9665,-1.3033,2.7523,1.9871,-0.9462,-0.74214,-0.58919,-1.4565,2.2931,0.94127,-0.76771,-0.86977,0.22706,0.96694,-1.2012,-0.58915,0.022937,0.2526,-0.84409,-1.2012,-0.002485,3.5176,0.6352,-0.2322,-1.3034,-0.079033,-0.71672,0.023041,-0.053384,-0.28301,0.30368,1.4514,-1.2013,1.273,-1.7115,0.89024,-1.584,2.6248,-1.8135,1.0434,-1.0482,-0.35952,-0.66568,0.43108,-0.43597,-0.74212,-1.1761,0.78824,-0.86964,0.76283,2.4718,0.023054,-0.002546,-0.48719,-1.0228,0.48223,0.7628,3.7727,-1.5584,-1.0228,-0.6657,-0.99725,-0.84411,-0.18106,-0.5126,-0.76767,3.3135,0.022961,0.38023,-0.94609,0.227,0.78821,-1.4819,-0.76772,-0.38507,-0.28297,4.3338,2.3187,-2.3236,-1.2267,-1.686,0.96679,-1.0228,-0.71668,0.81378,0.53313,-0.23217,-1.3032,1.4772,-0.15555,0.63524,0.022913,0.15049,-0.58912,-0.51267,2.4973,-1.0737,0.71175,1.2473,-2.0431,1.2984,-1.686,0.66077,-1.3289,-1.1248,0.50769,-1.0993,2.7013,0.78823,0.023041,-0.86972,-0.58903,-0.74216,2.1147,-0.84426,0.32905,2.1657,-0.84424,-0.002399,0.5076,-1.1504,-1.5329,2.676,-0.18106,-0.64017,-1.2523,-0.51258,-0.58905,-0.61468,-0.33418,-0.94615,4.1811,1.936,-0.86981,-1.0739,-0.79325,-1.4309,-2.0941,2.0892,1.1198,0.023065,-0.25754,-0.71665,-0.81873,-0.002467,-0.81874,2.8543,-0.25752,0.86485,-0.92081,-0.6146
-0.23204,0.91582,0.12505,-0.4361,-0.38509,-0.46158,-0.35954,-0.15549,0.2016,-0.23202,-0.027969,0.099564,0.32915,-0.078977,-0.15549,-0.1555,-0.12999,-0.027956,0.074069,0.12509,0.074069,-0.027956,-0.10449,-0.053488,-0.027969,-0.078959,-0.12999,-0.053458,0.074069,0.048567,0.023059,-0.05347,-0.002467,0.023035,-0.13,-0.18101,-0.053476,-0.1045,0.074057,0.048543,-0.28305,-0.1045,0.048549,0.5332,-0.079002,-0.13002,-0.43611,-0.30856,0.43114,-0.053488,0.38012,0.76277,-0.28305,-0.35957,0.96683,0.17609,-0.61463,-0.33405,-0.64014,-0.20652,0.43117,0.35464,-0.079021,-0.027993,-0.027993,0.023035,-0.053488,0.12508,0.099559,-0.58914,0.96683,0.30363,-0.28304,-0.13001,-0.027993,-0.002485,-0.053495,0.074062,0.074051,0.048543,0.048561,-0.33404,0.43117,0.074062,-0.12999,-0.28303,-0.56362,-0.33407,0.15057,0.53318,0.17606,0.68624,0.074038,-0.71668,-0.53815,-0.61466,-0.25756,0.09954,0.17607,0.25259,0.2271,0.17608,-0.027998,0.43117,0.5332,-0.35957,-0.38506,-0.078959,0.32915,0.17609,-0.35956,-0.4871,-0.8187,-0.46159,1.2219,-0.25753,-0.43609,0.53321,0.2526,0.12504,-0.027998,-0.02798,-0.053495,-0.002467,-0.10449,0.43118,-0.30854,-0.41055,-0.13,-0.20653,0.58421,-0.58915,0.17607,-0.15554,0.99232,-0.69118,-0.41059,-0.30855,-0.079002,-0.053495,0.15054,0.099559,0.099546,0.023029,-0.027993,-0.02798,0.2271,0.25259,0.15056,0.12506,-0.053476,0.45667,-0.15551,-0.20652,-0.28303,-0.25753,-0.30854,0.074062,-0.002448,-0.23203,0.074057,-0.18102,0.099559,0.91581,-0.33405,-0.25756,-0.3851,-0.41058,0.074033,-0.74221,0.3036,2.6248,-0.13002,-0.4106,-0.81871,-0.46161,-0.20652,-0.10449,0.074075,0.1761,0.30363,0.1761,0.09957,0.17608,0.12509,0.048567,-0.078966,-0.078966,-0.027956,-0.10449,-0.002467,-0.053482,-0.20653,-0.078996,-0.25753,-0.43608,-0.12999,-0.078966,0.48218,0.17609,0.023047,0.023023,0.074038,-0.002472,-0.027974,-0.15552,-0.28305,0.66074,0.15058,0.15058,-0.002472,-0.07899,-0.30855,-0.53814,-0.35957,1.477,0.55872,-0.71668,0.25261,-0.053482,-0.23205,-0.20655,-0.23203,-0.13,-0.1045,0.45667,-0.002461,-0.10449,0.099577,0.023047,-0.027962,-0.002467,-0.002467,-0.18102,-0.027969,0.35463,-0.1045,-0.13002,-0.13001,-0.002472,-0.13002,-0.12999,-0.53812,0.63521,0.55869,-0.30858,-0.46162,-0.23205,-0.13002,-0.027993,-0.20655,-0.48712,-0.61467,1.7831,1.0433,-0.15553,-0.48713,-0.56364,-0.33407,-0.15551,-0.28306,-0.02798,0.17608,1.0433,-0.07899,-0.33407,-0.35956,-0.15551,0.048536,0.20158,0.17608,-0.027962,-0.027969,0.023035,-0.23204,-0.078972,0.2526,0.12508,-0.4106,0.30364,-0.078996,0.38014,-0.053476,-0.15551,-0.30854,-0.15549,-0.053495,0.048536,0.2016,0.074069,-0.43607,0.074062,0.68622,-0.07899,-0.48711,-0.10448,-0.002461,0.22709,0.074044,-0.027969,-0.18101,-0.33407,-0.28308,1.2729,0.35465,-0.48709,-0.53811,-0.48711,-0.58916,-0.13,2.2422,-0.81871,0.023047,0.8903,-0.66569,-0.79321,-0.10449,-0.35954,-0.078977,-0.078977,0.048543,0.38016,0.30363,0.074044,0.15057,0.074038,0.15056,-0.15551,-0.053488,0.048543,0.17608,-0.15549,-0.28303,0.30363,0.15058,-0.25756,-0.30857,-0.027993,0.12507,-0.053488,-0.25752,0.074075,-0.25754,0.71173,0.17607,-0.30855,-0.1045,-0.30854,-0.15553,0.17607,2.0126,-0.33407,-0.51262,-0.46159,-0.25753,-0.41058,-0.33405,0.25259,0.35463,0.2526,-0.002467,-0.33406,0.94133,-0.66565,-0.10447,0.25264,-0.4616,-0.23204,-0.28303,0.023054,0.048561,-0.28305,0.12506,0.43116,-0.23203,-0.078984,0.22711,-0.23203,-0.35957,0.048536,0.22709,0.074038,0.048536,0.35463,-0.079008,0.074038,-0.002467,-0.002461,0.048549,-0.05347,-0.002467,-0.078984,-0.027974,-0.053488,-0.23202,0.32914,-0.28303,-0.46159,-0.89522,3.3136,0.074057,-0.99726,-0.69118,-0.61466,-0.18102,-0.15553,0.023047,0.17609,0.12507,-0.002461,0.99234,-0.18103,-0.4361,0.45668,0.50768,0.71176,-1.2523,-1.0228,-0.64016,-1.0228,3.0075,0.50769,-0.7167,-0.71669,-0.4106,-0.28305,-0.15552,0.12507,0.38014,0.35463,0.38015,0.17611,0.023047,-0.1045,0.12505,0.023029,0.048555,0.099564,-0.05347,-0.10449,-0.18103,-0.0535,-0.053495,-0.18103,-0.20652,-0.15551,0.25262,0.15059,-0.053488,-0.002485,-0.002485,0.73724,-0.20655,-0.64017,0.17609,0.32915,1.6045,-0.25754,-0.51263,-0.53815,-0.46162,-0.43609,0.074081,0.55872,0.89032,-0.33406,-0.18102,-0.20655,-0.30856,0.20159,0.30363,-0.002443,0.048549,-0.23204,-0.02798,-0.027974,0.12505,0.074075,-0.002461,0.074062,-0.1045,-0.15549,-0.1555,-0.1045,0.048536,-0.053482,0.048555,0.15057,0.15056,0.12505,0.20158,-0.027974,0.19971,0.1742,0.0977,0.1232,0.1232,0.1232,0.19971,0.22521,0.074033,0.22708,-0.079002,-0.66565,0.40568,-0.13,0.20159,0.30363,0.12508,-0.56362,-0.30854,-0.35956,1.8086,-0.38509,-0.30855,-0.13,-0.38508,-0.35956,-0.02798,-0.23202,-0.20653,0.22708,0.86478,-0.10449,-0.078972,-0.18102,0.048531,0.074051,0.17609,0.074069,-0.10449,-0.12999,-0.20653,-0.15552,0.048536,0.074062,0.15059,-0.053451,-0.053476,-0.027987,0.048531,-0.25755,-0.002472,0.25263,0.074044,0.32912,-0.15553,-0.28305,-0.13001,0.048555,0.023041,0.09957,0.27812,-0.56363,-0.5126,3.0585,-0.66565,-0.64015,-0.43611,-0.61465,-0.43609,0.099564,-0.053482,-0.18102,-0.2065,-0.69118,2.1402,0.27811,0.30361,-0.41061,-0.38508,-0.18102,-0.18101,-0.20653,-0.13001,-0.13,0.099564,0.023029,0.35464,0.53318,0.22709,-0.35957,-0.30856,0.27812,-0.23204,-0.20652,-0.1045,-0.002454,0.074062,-0.1045,0.35464,0.38015,-0.13001,-0.15551,0.099564,-0.13,-0.13,-0.13,-0.20655,1.2474,-0.10451,-0.25756,-0.30858,-0.48712,0.22709,-0.13002,1.1964,-0.18104,-0.3851,0.38014,0.15056,0.09954,-0.30858,-0.33409,-0.15551,-0.15551,-0.10449,-0.002461,0.074062,0.17607,0.15056,-0.027993,-0.027993,-0.053495,-0.078996,0.023023,0.074038,0.074038,0.023041,-0.23204,0.15058,-0.33407,0.68626,-0.20653,-0.28304,-0.13001,-0.07899,0.048555,0.023041,-0.078977,-0.10449,0.048543,0.023029,-0.053506,0.15057,0.20159,-0.027938,-0.027962,-0.56364,-0.89523,1.0433,0.9413,-0.13002,0.45666,-0.027987,-0.23201,-0.00243,-1.5584,-1.5074,1.7831,2.1657,-1.5585,-1.5074,-1.3799,3.2114,-1.8646,3.339,-2.1961,-0.30833,-0.76752,-0.33402,0.60957,10.736,-3.4716,-4.0327,1.375,0.83928,-2.3492,-0.15552,-1.686,-2.6296,-5.716,8.8742,5.15,9.6904,-2.7573,-3.4204,-4.8489,-5.6143,2.5738,-2.8338,-3.8285,-5.6398,11.348,12.063,-0.99731,-0.97166,-4.0326,-4.3897,-6.0732,9.0019,3.186,-0.46165,0.074038,-8.1394,2.0637,3.1095,7.7009,-2.9869,-2.3747,-3.9051,-2.8083,-0.079002,-0.71667,4.8185,-7.3487,13.542,2.2678,-3.2164,-3.4205,-0.43612,0.048543,-2.1706,-0.66577,-1.2524,6.5786,-0.12992,1.9362,-3.446,-0.64032,0.25246,1.7829,-4.5174,4.7166,0.99249,-2.6297,1.7066,-1.7114,-2.5022,0.15056,-0.053488,-0.51261,0.83927,-1.0228,-6.0989,5.3796,3.5686,-1.8135,0.99239,-2.4257,-0.48714,-3.242,-0.74224,-4.2878,-0.25758,8.211,1.7066,-0.33403,-1.2778,-2.1961,5.1246,-2.2727,-4.8745,0.022974,5.4817,-1.686,-1.737,3.5687,-3.4205,-0.61462,1.2729,0.96681,-0.41061,0.50761,1.5789,1.0943,0.76282,-4.2877,-4.9764,7.8539,1.732,0.35465,-1.7115,-0.18097,-0.41052,-4.9254,-0.181,1.834,3.0074,2.5737,-1.1504,-2.2982,-3.3695,3.2626,-0.25752,-3.3184,9.8436,-2.2725,-2.2726,-1.4054,-1.4054,-1.0738,-0.3851,-1.635,1.7576,-0.84421,-2.4512,11.348,-0.07899,-0.89521,-2.043,-1.89,-1.1249,-4.3643,-0.053513,6.1194,0.12507,-1.788,1.1454,-2.6298,1.528,2.6504,-4.0327,-2.3491,-0.38513,5.7622,-0.25761,-0.53813,-4.5428,-0.15549,4.9715,1.63,-2.9614,-1.5839,-0.76767,0.60972,0.27813,-0.89521,2.0637,-0.027987,0.68623,-2.4767,-0.48714,-0.7422,-2.4257,-2.7573,3.3136,0.27812,0.76275,-1.6605,-0.94628,0.50767,1.9106,-1.5328,-0.053458,-0.74221,-0.5892,1.4769,-3.5226,4.0023,2.7014,-1.5329,-4.4918,0.43116,-0.86969,-0.94622,0.45672,-2.9868,1.9616,1.7576,0.27807,2.5227,-0.41061,-2.8083,4.1043,0.4567,-1.6604,-1.3289,0.89031,1.5279,-0.53815,-4.9765,3.8492,-0.30853,0.22712,-0.10445,-0.20652,-1.4564,-0.92073,0.27812,-0.15546,2.7779,-1.1503,-0.74221,0.76275,-1.2014,-1.4819,3.7472,1.9106,-1.4054,-3.395,-2.4257,5.1245,0.91579,-0.35957,-1.2268,0.89031,-2.1451,-1.7369,-4.0837,4.4869,-2.4257,-1.7115,6.1194,-0.97176,-0.41063,0.35464,-0.92075,-1.2523,-0.76769,1.6045,0.78823,-1.788,0.68627,-0.81868,-1.2523,-0.028005,-1.788,1.477,0.32917,-1.8391,-0.28308,6.2724,-1.1758,-1.3289,-1.3798,-1.3033,1.2729,0.99237,-2.1706,-0.58913,-1.0228,-1.737,-0.48711,6.1704,-2.0941,-0.10447,-0.10447,-0.41056,1.783,-3.0889,1.0943,-0.38508,-1.1503,2.6758,-0.64015,2.0892,-1.4054,-1.6859,1.2474,-0.23202,-0.027962,-0.94624,-1.4565,-1.7625,7.6499,1.1454,-1.5329,-1.0483,0.1761,-1.2524,-4.6704,4.0278,0.074044,0.76277,-0.79322,-3.2929,-0.20656,-0.13006,3.9002,0.1506,-1.737,-0.38508,-0.41058,-0.38512,-0.20653,-1.3289,-0.33402,-1.3288,1.6045,0.30359,2.1657,-0.46159,-2.0686,-2.9359,-1.3289,2.1657,0.38016,1.9616,0.81377,-1.1503,-2.1196,-0.10451,0.17612,-4.2112,7.1142,0.94132,-0.28305,-0.71671,-1.5585,-0.86973,0.99232,2.0891,-0.18105,-0.51262,-2.7828,1.7576,-2.2216,5.5837,-1.2524,-1.0738,-1.3033,-2.2216,-2.5277,0.83927,3.1095,4.3594,-1.686,-0.84424,-0.15554,-0.38509,-1.8645,3.7472,2.4973,-1.0738,-1.9155,0.58422,-3.5225,1.7321,-0.30857,1.681,-1.4054,0.38015,-2.3747,2.3698,4.946,-0.48709,-1.5584,-1.2523,1.0178,-1.0738,-1.3799,3.9002,-0.35956,-0.38504,-0.23204,-0.33407,-0.23205,-0.81869,-0.51263,-0.15551,8.2876,-0.86974,-2.3492,-1.2013,0.2526,-2.4512,0.53318,1.3239,0.60971,1.528,-1.5329,-1.0738,-0.23208,-1.788,-0.30855,-0.13002,0.22708,0.55872,0.074075,-1.686,0.6097,3.9512,-0.89527,5.7878,-2.0941,-2.0941,-2.3237,-0.92075,3.1605,-1.1248,3.3901,1.5025,-1.0227,-2.1961,-3.0889,0.63525,4.6399,-0.66566,-1.8135,-1.7115,1.6045,-1.2268,2.8289,1.1709,-0.35959,-1.1248,-0.15553,1.63,-0.51262,-2.1451,-0.30854,-1.1248,9.6395,-1.0738,-4.0837,1.7321,-1.7115,-1.6095,-0.76772,0.048543,-1.4054,0.89032,0.32919,-2.5787,4.5124,3.1095,-1.0228,-0.20655,-2.0686,2.4973,-1.635,-3.1909,3.1095,2.6759,-1.9665,-0.30854,5.3032,-2.9358,0.099588,-1.1759,-1.3799,1.8851,3.1605,-2.4512,0.15059,1.8851,-0.66565,-1.3543,-1.4819,-0.33408,-0.8187,0.91581,0.30362,2.3442,-1.3288,-1.0738,-1.686,-2.5532,0.53321,5.0481,-0.15556,-2.0176,-1.7115,0.30361,2.7268,3.2881,-0.84422,-1.4309,-1.4819,-0.92078,-0.38513,-0.33411,-0.74223,-1.0738,-0.53814,3.6451,0.60974,-0.71666,-2.0686,1.1709,0.8648,-1.5329,1.3495,-2.1451,-1.0228,-1.3289,-1.0483,-0.51262,0.099577,-1.8135,6.8081,-0.15555,0.30361,-0.43609,-1.89,-0.97174,1.1964,1.0433,0.2271,1.7831,-1.5074,-1.2013,-1.4819,1.0434,-2.1961,-2.8083,6.247,-2.5277,3.3135,-0.2065,-1.3544,-0.25756,-2.8849,-0.23203,3.237,-1.3033,0.50768,-0.13001,-0.89528,0.048487,-0.079021,1.6045,-0.56365,0.58427,-1.788,4.742,-2.8848,0.30361,-0.76771,-0.92075,0.8903,-0.66566,0.91575,0.074044,-0.86967,-0.84419,-0.69116,-0.10451,0.89026,-0.92077,-0.56369,2.3697,0.023059,-1.2778,-0.89516,-0.76767,0.55871,-1.4309,-0.7167,-0.25756,0.86479,-0.25753,-1.5074,3.8747,0.25258,0.81379,-0.002467,-0.97174,-0.30855,0.22712,3.0585,-0.33409,0.25264,0.38015,-2.6808,0.76276,2.2677,2.3952,-2.3237,0.35466,-0.76769,1.2984,-0.84424,-1.0483,-1.6605,0.074081,4.7675,-0.30853,-0.99731,-1.3034,0.94128,-2.1196,2.6504,0.30366,0.78828,-0.84422,-0.23204,-1.0483,-1.6094,2.8289,1.6555,-1.3034,-1.4819,-0.79324,2.1657,-0.38511,-2.2472,2.8799,-1.89,0.074062,3.7982,-2.0431,-4.5429,1.6555,2.4463,1.579,-0.61465,-0.7167,-0.46165,-1.2013,-1.89,3.8747,-1.4054,0.30363,0.2271,-1.4054,0.63523,-0.7932,2.9054,-1.6095,-0.10448,-0.71666,-2.1706,-3.8031,5.5327,5.5072,-1.4054,-0.69115,-1.6604,-1.5329,-0.25756,0.38009,-1.737,-1.9411,3.7982,-1.9411,2.6504,0.83933,-2.2981,-1.2523,1.528,3.339,0.17604,-0.05347,-2.1706,0.25268,-0.23204,-1.4819,-1.0993,-0.84424,-0.58916,-0.89523,3.4921,0.20159,1.5535,0.22709,0.60973,-1.0483,-0.92073,-0.53812,2.1912,-1.9921,-1.5585,2.8543,1.5535,-1.4054,-1.89,-1.5839,-0.23204,0.96683,-1.89,-1.6605,-0.028011,8.9762,-0.97177,0.5077,1.3239,-1.0483,-1.3799,-1.9411,-0.92077,-0.4106,-0.002461,2.0127,-0.99727,2.2677,-0.41058,0.94133,-0.92074,-0.76769,-1.2013,-0.84424,-0.64018,-0.02798,-0.027962,1.426,-0.41059,0.048543,0.38013,-1.2268,0.55872,1.0178,-1.5839,-0.002454,1.9616,-0.76771,-2.6298,-1.788,7.1652,0.22707,-3.7776,-1.3799,-1.2268,-1.2268,1.7321,2.2932,1.0179,-0.58912,0.66077,-4.0837,-0.43614,4.2828,-2.0941,2.9309,1.8341,1.426,-1.4819,-2.1961,-2.4002,-0.25757,0.40565,-0.94623,-0.25751,1.1964,2.9309,-0.4871,-0.3086,-1.533,-0.86975,0.074069,-0.027969,3.5431,0.99232,-1.1503,-1.2778,-1.1758,-3.0124,-2.5277,10.354,-1.2269,-2.1706,-0.078984,-0.79319,-2.0431,-0.9207,2.8289,1.8086,0.48216,2.0127,-1.941,-1.0993,-1.0483,-1.2778,0.20162,-0.64012,-2.3236,-0.15551,4.4869,1.5025,-1.2523,-2.9869,-4.7469,8.3385,2.1402,-4.0327,2.1147,-1.3034,-0.94625,-1.1248,-1.4309,-1.0738,0.55872,-0.48713,-1.0993,2.0637,3.5432,-0.6146,1.9361,-0.92076,-0.48713,-1.6604,-1.1758,-0.9463,-0.28309,5.2776,-0.81868,-1.3544,-1.4309,1.2729,-0.79321,-0.56362,-1.6095,5.5327,-0.33409,-2.9103,-0.84418,-0.38506,-1.0228,-0.58917,-0.10452,-1.1758,1.1709,-1.3289,1.9106,-1.5074,6.4765,-0.30854,0.81381,0.099595,1.1964,-1.8646,-0.99727,-1.2268,-1.0738,1.9361,0.27812,-0.28303,-1.0483,3.4921,-0.46164,0.94131,-0.027956,-0.30855,-1.2523,-2.0941,0.17611,-0.58911,-1.533,5.3541,-2.4767,-0.46161,-0.23205,-1.89,-1.9666,6.1959,7.1397,-5.2315,0.12507,-1.0228,-1.7115,-1.788,2.1912,-1.6859,-1.8645,3.4921,2.2932,0.55865,-1.7625,-2.8338,3.6197,-0.30855,1.1964,-1.1248,-1.8645,0.99236,-1.2523,-0.46162,0.40563,-1.0738,-1.3033,0.45667,1.6045,4.4359,-0.053476,-2.0686,-1.6094,-2.2472,0.6097,4.4359,0.32913,-1.1503,-0.58915,-2.8849,-0.58916,2.5993,3.3391,-2.0686,-1.9921,-1.7625,-0.8187,1.7576,-0.48708,-0.56363,0.91577,-0.69122,-0.56365,0.58421,-3.6756,9.2823,-0.61466,-0.5381,-1.6604,-1.5074,0.94134,-0.79322,-0.69119,0.73726,-3.2164,4.4359,0.074044,-1.7115,-0.23203,2.7779,-0.99726,-0.76772,-1.2013,-4.6194,6.3235,5.2776,0.27808,-1.8135,-1.5074,-1.3033,-0.97174,-0.25756,-3.5991,3.084,2.7014,4.997,-0.94625,-0.58915,-0.56362,-0.4106,-0.81874,0.68622,-1.2268,-1.8135,1.8341,1.4005,-0.35957,-1.1503,-0.74215,0.60969,2.8799,2.6758,-1.9156,-4.4153,-0.86973,7.3438,-0.4106,-1.0738,-1.3544,0.32913,-0.28305,4.946,1.324,-1.788,-0.28303,-0.64018,-1.0483,-0.94625,-0.38507,1.426,1.1199,-0.25756,1.732,-0.51262,-0.43608,-0.25753,-1.4309,-1.1248,2.7013,0.2526,-0.15552,0.023047,0.20164,-0.76767,-0.30854,1.1199,-0.8187,-1.0228,1.3239,0.048531,0.38013,-0.41057,-3.395,2.2932,1.4005,-0.027969,-0.69119,-1.4309,3.1605,-0.053476,0.73725,-0.99728,-1.0738,-2.0176,0.63524,-0.86971,1.1454,-0.61465,-1.584,-0.56361,-0.7422,-2.6553,6.4765,0.45668,-1.686,1.0944,0.58424,-0.94627,-0.6401,-1.5074,-1.1758,3.135,-0.99727,0.099552,-0.30858,-0.9973,-2.2981,-0.30856,0.99235,0.66077,-0.61462,1.1709,-3.293,7.0121,-2.4767,1.5535,-0.078984,-1.1248,2.3442,-1.6095,-0.33408,-1.5329,-1.89,5.4562,-1.7625,-0.84421,4.3338,0.78825,-0.7422,-1.5074,-0.99723,0.074044,0.78827,-3.9817,8.4151,-0.15549,-0.18098,-2.0176,-1.8646,-0.66569,-1.0228,-0.35954,0.63528,0.8648,0.78827,-0.25758,-0.41061,0.2271,-0.56364,3.4921,-0.58916,-2.1196,1.1964,-1.2268,-1.4819,-0.027956,-0.43608,-0.4616,0.6352,-1.6605,1.528,-1.9921,4.1043,-0.66567,0.40565,-2.6298,-1.0228,2.7524,1.3749,-2.3747,0.35463,-1.3544,-1.2778,-0.61465,-0.51261,-0.74216,0.45668,2.1912,-0.43607,0.35465,1.8851,0.48219,0.32913,-0.64019,-0.027956,-1.6349,-3.7776,9.3843,-0.92077,-0.71669,-0.71668,-1.1758,-2.9614,0.63517,3.9257,-0.97174,-0.38506,-0.97174,-1.5839,0.73723,-0.38509,-0.18101,2.6759,0.15058,-1.7625,-0.38506,2.3953,-0.84424,-1.7625,6.451,-1.737,-1.8645,-0.79319,0.09957,-1.1248,2.0892,-0.35956,-0.71666,-0.71668,-0.30856,-1.4054,5.3031,-0.81872,-1.0228,-2.2216,0.63523,1.1199,-0.33406,-1.5329,2.4718,-1.6094,1.8341,1.3239,-1.5074,1.9361,-1.4054,-1.0228,-2.3237,0.35464,2.7269,0.63523,-1.2523,0.68622,-0.28309,-1.6605,2.9819,-0.25754,1.1454,-1.2268,-1.941,-1.2268,6.7826,0.25261,-2.1706,-2.0431,0.68624,-0.84424,-1.0738,-1.4564,2.0892,-0.053464,-1.4054,0.68626,0.50768,-0.35962,0.45666,-1.788,-0.69116,-0.4361,-0.92074,-0.43609,-0.28305,4.4359,-1.2524,1.9871,0.8393,0.2016,-1.5584,-0.84424,-0.92077,-0.9973,-2.0431,2.0382,0.074038,-0.33411,2.8544,0.60973,-1.1248,-0.33405,-1.4054,-1.5329,-0.002479,-0.41058,0.73731,1.0944,-2.1706,7.7774,-1.1248,-1.4054,-3.242,-1.3799,1.426,-0.28305,-1.2013,0.71176,0.89032,-0.51257,-0.12998,-0.33407,-0.61465,0.40564,0.35461,1.3494,0.32912,-1.2268,2.1402,-1.2268,-0.7167,-1.7625,0.66074,8.4151,-2.0431,-1.6094,-1.4819,-1.8135,-2.1451,-1.1758,1.8851,0.12509,3.033,-0.078977,0.074075,-0.10452,2.8034,-3.0634,0.25262,2.9819,-1.4819,-1.3799,-0.20652,-0.92073,-0.64017,-0.15553,0.27809,1.2219,0.81375,0.48219,2.1147,-0.46159,-1.2268,-0.7932,-0.66567,0.50767,0.81378,-1.3033,-1.4819,0.40567,1.426,4.1553,-1.4564,-0.46161,-1.9921,-2.7318,-1.0227,0.023072,-0.23208,0.25262,2.6248,-0.25756,0.43114,-0.79319,-0.76769,-0.61464,-0.89522,0.1761,2.3952,2.3697,0.17611,-1.8135,-0.99727,-0.76771,0.099552,-4.9765,6.451,0.99235,0.66075,-0.69119,-2.0686,-0.7167,-0.97177,0.38014,-0.23202,2.1657,1.1964,-1.737,2.4463,2.7524,-0.89521,-0.35956,-2.0176,-2.2471,-0.58915,0.6607,0.09954,1.9616,0.25258,0.22707,-0.002454,-0.027944,-0.56362,0.099564,-1.1248,0.91581,3.5686,-0.74218,-0.7677,-2.7573,0.35463,-1.0738,-0.99725,-0.86971,1.9616,0.45667,-0.89522,-0.002443,0.023059,-1.4564,0.40569,2.0637,-2.0176,-0.71669,1.9616,1.4005,-2.6808,3.6962,-0.94623,-2.7063,-0.64015,2.3188,-0.56363,-0.3851,-1.5074,-3.0634,4.4869,-1.3033,2.0892,-0.002472,-0.35961,0.83928,-0.38511,-0.35961,1.6555,-0.35954,-0.027962,-0.027969,0.27812,-0.76767,-0.53811,1.1964,-1.3799,2.6758,1.0943,-2.2216,3.1605,0.2271,-1.6605,-1.2523,-1.2524,-0.28302,-2.0941,0.099552,2.2422,0.71177,-0.97173,0.78831,0.78829,-1.4819,0.60973,-1.2013,1.0434,-0.79319,0.4567,-2.2726,5.4307,-1.2268,-1.89,1.0944,-0.97176,-0.76766,-0.74213,-1.1248,1.2984,0.3291,0.17604,1.5535,-1.3799,0.25262,0.55867,1.2474,-0.0535,0.48216,-1.2779,-0.51262,-0.4361,-1.0738,-0.94625,0.12505,0.71173,2.6758,3.3645,-1.5074,-0.74221,-1.0483,0.25263,1.2474,1.1964,-0.41061,0.25259,-1.0483,-1.737,1.1199,-1.737,3.8237,0.099577,-0.69118,-0.23203,-2.0686,1.3494,0.83928,0.5332,1.579,-0.64015,-1.2013,-0.86974,-1.2268,-1.1758,1.6301,4.3083,-1.8135,4.0022,-0.84424,-0.15552,-1.839,-1.5329,-0.99725,-1.3799,2.4463,0.8648,0.94131,-0.64016,-0.5126,1.375,-0.10447,-0.89524,-1.788,-2.8338,5.2011,3.033,1.0944,-3.2165,-2.7828,5.8388,-1.0738,-0.94622,1.2729,-1.0993,-0.86974,-0.56363,-0.12999,0.81378,0.86483,-1.6095,-1.5839,3.8492,0.55872,1.3239,-0.66565,-1.2268,-0.69116,-1.2778,2.5993,3.033,-1.2013,-2.0176,-1.9921,-0.053488,0.074038,-1.0993,0.20161,-2.1196,1.0944,5.4562,-0.76769,-0.76772,1.3749,-1.2013,-1.5073,-1.4309,-0.79318,0.86478,0.15056,-0.30858,0.83931,-0.23206,-0.66565,-0.23207,2.1402,0.09957,-0.35956,-1.0483,-1.0228,1.2984,-1.5329,-0.84424,0.66074,8.0835,-0.8952,-2.6552,-2.4002,-2.9359,-1.1249,-2.4513,0.2781,1.9871,0.71175,1.1454,-0.41055,-0.56356,1.2219,-0.48713,-0.23212,-0.18106,-0.0535,0.023035,0.074062,-0.12998,-0.002436,-0.002443,-0.2065,-1.1758,0.22712,-0.69116,2.8034,-2.1451,4.0022,1.528,0.94131,-1.9411,-0.18101,-1.9921,-1.9666,-1.788,2.1402,0.81377,-0.30855,-0.1555,-0.027962,-0.13001,0.30361,0.55869,-0.66569,2.3187,0.4312,0.55868,-0.002454,2.3188,-1.2523,-0.94625,-1.0993,-0.66565,-1.0993,0.43117,-0.027962,-2.7828,0.40568,2.3187,1.1199,0.074057,-0.10449,-1.737,-0.35956,-0.84424,-0.86974,1.732,-2.0941,-3.7776,6.5786,1.3494,5.4307,-1.8901,-2.0686,-1.9155,-1.6604,-0.92076,-0.48714,1.0178,0.30364,1.5025,0.43117,-0.10451,-0.51262,-1.8645,4.0788,-0.46164,0.68622,0.68625,0.48218,-1.0228,-1.0228,-0.89522,0.15059,-0.43611,-1.5329,-0.76769,4.5634,-0.46164,-0.0535,0.12506,-0.81871,1.8341,-1.4054,-0.10455,-1.2779,-0.66567,3.186,-1.7115,-1.9666,3.3646,1.2474,0.9923,-2.0431,-2.8338,-0.58914,-1.0483,-0.56365,-0.18101,1.579,-0.027962,-0.64015,-0.66567,-0.4616,1.6555,0.68626,-0.66565,-0.69116,2.5228,0.1251,-1.4054,1.7321,-1.1758,-1.3289,1.3495,-1.0228,0.17609,0.5332,0.68622,-0.76771,-1.5329,-1.686,5.2521,1.579,-0.05347,-1.1758,0.12505,0.58419,-0.81873,-2.1961,-2.0941,3.7982,0.32912,-1.635,0.83928,-1.0738,-1.4564,-0.86972,1.732,1.1964,-1.788,-0.002497,-0.3086,-1.0738,0.074062,2.6504,1.681,-1.6095,0.58419,-1.1758,-1.2013,-0.51262,-0.18098,-0.002443,0.38015,1.477,0.78824,-0.58917,0.78828,-0.15549,-2.7573,2.6503,-0.20652,-0.51262,3.7727,1.1454,-2.8083,-1.2524,-0.56365,0.25262,-0.35959,-0.33405,-0.002454,-0.46162,-0.15552,0.91582,0.074075,1.2729,0.074062,-1.5839,-1.686,2.7268,2.1657,-1.3288,-1.3799,-3.2674,0.94129,1.681,0.3036,-1.1758,0.12506,-0.078972,-0.79319,-0.94623,-0.69121,-0.35957,-2.4767,0.89029,2.8799,9.4609,-1.0993,-1.4819,-2.3747,-2.6553,-1.4564,2.4463,-1.0228,-0.00243,0.12506,-0.079014,-0.20655,-0.92078,1.0688,1.3494,-0.10449,0.30367,-0.43609,0.68627,-0.66567,-0.15553,-1.2779,5.2266,-1.4309,-0.7422,2.3953,-1.4819,-0.71669,-0.51263,-2.3492,-2.0176,1.2984,0.86478,1.63,-1.0228,0.17611,-0.69116,-0.51262,0.73725,-1.9155,0.30361,0.86478,-1.5074,-0.71668,2.7779,0.099577,-0.99726,-0.76767,0.25262,-0.25753
-0.15552,-0.28305,-0.002485,-0.053482,0.27812,0.1761,0.1761,-0.28305,-0.13002,-0.0535,0.12507,-1.0228,0.38016,1.3495,0.89032,-1.2013,0.27815,-0.28303,-1.1248,0.43118,-0.23203,-0.69116,0.12509,0.023059,1.0689,-0.053451,0.074081,-0.20651,-0.12999,-0.078972,-0.078977,-0.053476,-0.053482,0.023041,0.22712,-0.053476,-0.13001,-0.20654,-0.10452,-0.10452,-0.0535,-0.07899,-0.28305,-0.027974,1.2729,-1.3033,-0.99723,4.4359,-0.56364,-0.66565,-1.5329,-0.89522,-0.69117,0.81379,-0.10447,-0.002443,-0.12998,0.89032,-0.002448,-0.027962,-0.12999,-0.15549,0.048567,1.2219,-0.33405,-0.15551,-0.33406,-0.53812,-0.23204,-0.25754,-0.25755,-0.20653,-0.1045,0.048549,0.023047,0.20159,0.2271,0.099552,0.12507,0.074062,-0.002467,-0.1045,-0.12999,0.023047,-0.027969,-0.58914,0.38016,-0.027987,0.76275,0.38014,-0.71668,-0.1045,-0.7422,-0.71667,-0.74216,1.4005,0.30364,-0.71667,0.76277,-0.079002,0.73723,-0.20653,-0.13,-0.079008,-0.053513,-0.027974,1.1454,-0.35954,-0.33404,-0.15548,0.78829,-0.51261,-0.66565,-0.35956,0.20159,-0.28305,-0.61465,1.4005,-0.25755,-0.10452,-0.18101,-0.23202,-0.3851,1.579,-0.28303,0.27814,-0.46157,-0.71668,0.78825,0.35462,-0.23204,-0.12999,-0.4361,-0.33407,0.023035,0.048555,-0.35956,0.66074,0.32914,0.38014,-0.46161,-0.86971,0.96684,-0.10451,-0.46162,-0.53812,0.30366,-0.61465,-0.35959,-0.13002,0.074044,0.20158,0.17609,0.27812,-0.02798,0.32914,-0.33407,1.579,-0.56364,-0.51263,-0.30856,0.35465,-0.1555,-0.027956,-0.51262,-0.56366,0.55869,-0.4106,0.58419,-0.079008,0.45666,0.074044,-0.25755,-0.25754,-0.10449,-0.4616,0.8393,0.35463,-0.41058,-0.181,0.099583,-0.25753,-0.18101,-0.15551,-0.078966,0.17611,1.7321,-0.4871,-0.38508,1.0178,-0.4106,-0.51261,-0.38506,-0.43609,-0.69117,2.2422,0.17609,-0.30856,-0.58913,-0.25753,-0.79319,1.1199,-1.2013,0.15057,0.81376,0.12505,-0.25754,-0.027969,0.91581,-0.18101,-0.48711,0.074051,-0.20653,-0.027987,-0.30856,0.074051,-0.33406,-0.13,-0.13,1.1199,0.8393,-0.25754,-0.43609,-0.20653,-0.18103,-0.053495,-0.053488,-0.053495,-0.43612,-0.53814,1.0689,1.0178,0.50767,-0.94626,-0.81871,-0.66566,-0.74218,0.38014,0.12506,0.58419,-0.15551,-0.25754,-0.18103,-0.15551,-0.078977,1.5535,0.35466,-0.23202,-0.35956,-0.43608,-0.30854,-0.078977,-0.078984,-0.15551,-0.48711,-0.30856,0.12508,0.60971,0.45666,0.73723,-0.66567,-0.58914,-0.38508,-0.25753,-0.23202,-0.181,-0.30852,1.2474,-0.53812,1.1199,0.66075,-0.56364,-1.0228,0.68624,-0.35957,-0.35957,-0.33405,-0.1045,0.023047,0.074051,-0.1045,-0.23203,0.55872,0.048555,-0.078984,0.17608,-0.027956,-0.15551,-0.25754,-0.15551,0.68624,-0.23204,-0.41058,-0.43608,-0.76768,3.0075,-0.33404,-0.76768,-0.56362,-0.79319,-0.48711,0.32915,-0.48711,1.3239,0.38016,-0.002461,0.074062,-0.4106,-0.23204,-0.20653,1.8851,-0.38508,-0.35959,-0.30856,-0.18101,-0.078984,0.074069,0.17609,0.09957,-0.10449,-0.10449,-0.05347,-0.053495,-0.078996,0.12505,-0.027962,0.023054,0.023059,0.074069,-0.18101,-0.4871,-0.33405,0.71175,-0.94625,2.1402,-0.4616,-0.53812,-0.51262,-0.76771,-0.07899,1.0179,0.81379,-0.61463,-0.61463,-0.35955,0.83931,-0.12999,-0.4871,1.528,-0.23204,-0.18103,-0.13001,-0.05347,0.023065,0.20161,-0.05347,-0.078977,-0.20652,-0.20653,-0.079008,0.074057,0.048536,0.12505,-0.053488,0.17609,0.048549,0.17609,-0.18101,0.81379,-0.64017,0.32912,-0.81871,0.68624,0.66074,0.45669,0.91581,-0.79319,-1.3544,-0.71668,-0.33407,-0.41058,-0.053488,0.27811,1.0178,0.15057,0.2016,-0.10449,0.35465,0.12507,-0.28306,-0.30856,-0.13002,-0.079002,-0.15552,-0.0535,0.099559,0.074051,0.12505,0.074033,-0.10451,0.023047,-0.002461,-0.53812,0.71176,0.12508,-0.71666,1.0434,-0.56363,-0.71668,-0.4106,0.15057,-0.51263,0.48216,1.8341,0.074044,-0.61467,-0.7932,-0.20652,0.099577,0.30362,-0.33406,-0.027993,0.15057,0.12506,-0.20652,0.55872,0.17609,-0.027962,-0.18101,-0.002461,-0.25754,-0.41058,0.27812,-0.20652,-0.181,-0.28302,-0.35956,0.66074,-0.58916,0.9158,0.35465,-0.71668,-0.30854,-0.64014,-0.6402,1.8341,0.22703,-0.8696,-0.25754,0.58417,-0.46159,2.4208,-0.76772,-0.12999,-0.51262,-0.7422,0.78829,-0.23203,0.99234,-0.66567,-0.61466,0.30362,1.3494,-0.079008,-0.35957,-0.43609,-0.35956,-0.15549,1.2729,-0.48713,-0.23206,-0.15551,0.023035,0.048561,-0.15552,-0.027969,0.48218,1.0688,-0.51262,-0.66567,0.40566,-0.38509,-0.4106,0.40568,-0.25753,-0.92072,1.2474,0.8648,-0.43609,-0.4106,-0.15552,0.023047,-0.15549,-0.15549,-0.35957,0.12504,2.2677,-0.05347,-0.61463,0.1487,-0.38509,-0.41061,-0.25755,-0.079002,0.68624,-0.23205,-0.25756,1.8596,-0.48712,-0.15553,-0.18101,-0.30854,-0.25753,-1.0228,1.0434,0.12508,-0.1045,-0.56365,1.0688,-0.56365,-0.35958,-0.43608,-0.20652,0.17609,0.30363,0.27811,0.09957,-0.07899,0.023035,1.426,-0.053513,-0.38508,-0.41058,-0.38508,-0.079014,0.074013,-0.13001,-0.20652,-0.20653,1.3494,-0.002461,-0.33404,-0.46157,-0.25754,0.94133,-0.25756,-0.1045,-0.0535,-0.1045,-0.23201,-0.23198,0.63518,-0.053506,-0.02795,-0.30855,-0.027962,-0.027974,0.94134,-0.69115,1.1709,-0.28311,-0.38509,-0.38507,-0.20652,-0.71666,0.38017,1.0689,-0.18102,0.38015,-0.02798,-0.30858,-0.23205,-0.18103,-0.027956,0.12505,-0.99705,0.81359,1.1451,0.12507,-0.002448,-0.30849,-0.76747,-0.12992,-0.053544,-0.53813,-1.0227,1.8339,2.2676,-1.0737,-0.92073,-0.02798,0.22708,-1.0483,1.528,-0.18104,-0.35961,-0.56363,-0.69109,0.89002,-0.79266,1.4256,1.1705,-0.18092,-0.38499,-0.38489,-0.99712,-0.92062,0.45675,-0.181,-0.078984,0.048518,-0.079033,-0.35962,-0.30866,1.1709,0.89033,0.38001,0.4821,-0.46162,-0.48699,-2.4766,-1.0994,-1.1505,2.1911,0.7883,-2.0685,2.421,2.0891,1.3239,0.048665,-2.7828,1.7831,-2.9614,8.313,-3.5226,-0.38513,-0.46158,-1.2523,-7.5528,11.629,-1.3544,-0.69118,-0.30873,-1.0226,2.2678,1.936,-2.3493,8.7725,0.12503,-2.2216,-8.3182,11.17,-0.69111,-5.0018,-1.2011,-2.3234,1.936,1.1968,6.6295,-1.5332,-2.9107,-2.8594,-5.512,2.7014,-2.0176,1.6046,7.6245,-0.84412,-2.6807,5.1246,1.2729,0.83923,-2.0176,-3.5736,5.2011,1.3495,-3.9306,1.3239,-1.7115,-1.8645,-0.94618,2.4463,1.885,-0.58905,-0.38511,-2.8849,-1.2524,1.4769,-0.69124,-0.10447,3.2625,6.7061,2.676,-1.2777,-5.0275,-0.23209,-0.99727,-1.1503,-1.7115,0.96679,-0.97175,1.1709,3.339,-0.97177,-1.686,3.084,1.0944,-2.4512,-3.2929,4.5124,0.17607,-2.0431,0.048371,-2.4765,0.78819,-0.15577,1.6813,-0.61486,0.40556,-1.4817,-1.1249,-1.8901,0.60975,-0.079063,-3.7521,9.3844,3.4411,2.8033,0.25272,-1.1759,-0.74207,-4.4409,2.038,-1.3544,-1.2778,-2.9103,-1.0738,2.7268,-2.3748,2.8544,2.982,2.3442,0.20161,-2.1196,-1.5839,-1.7624,-0.81865,-2.2727,-0.58921,-0.28313,0.35457,-1.2014,-0.4106,4.5124,2.982,-1.2268,-1.1248,-2.0176,-3.8541,1.6045,1.8341,-0.66548,-2.6554,2.3184,-1.3543,-0.81859,-1.6859,-0.97171,0.73736,3.1604,-0.07891,0.94129,-0.15564,-0.84424,-2.4002,-1.0483,2.5993,3.339,-2.2216,-1.7115,-0.99726,-0.94623,-1.839,-2.9103,1.273,0.40568,-0.74214,3.288,1.2219,-2.5022,-0.66569,-1.1249,-0.9973,-0.66567,0.86479,-0.69115,1.0689,-0.078953,-1.5584,2.2422,-0.078972,2.0382,-1.0993,-1.0738,-1.8645,-0.74221,-0.58915,1.2729,-0.38509,-0.51263,-4.1602,2.0637,5.3286,-0.20656,12.598,-1.3033,-3.752,-4.1092,-0.86972,-3.7266,0.12505,0.94133,-0.66569,1.4004,0.22715,-0.078953,1.2474,3.4921,4.8185,-0.69117,-1.7115,-3.497,2.4463,-2.6298,3.1605,-0.2575,-1.1758,-0.18095,-0.84431,-0.86975,2.3443,-0.48713,-2.5022,7.6754,3.5686,0.17609,-2.9613,-0.89524,-1.3289,-3.2164,-2.2727,8.2875,-1.839,1.375,-0.89526,3.5176,-2.6298,0.81379,-1.7625,-2.4767,0.58419,3.5941,1.1709,-1.2268,-2.4257,4.4614,-0.25751,-0.94622,-0.10444,-2.7063,2.9309,0.20155,-1.5074,-1.8135,-1.7881,5.6348,-0.66564,-3.497,2.7524,2.3953,-1.8135,0.15057,-3.2164,-2.2727,3.594,0.35464,-0.053464,-0.25749,-0.41057,-0.74221,-2.3747,3.4411,3.288,-1.3799,-2.6808,-1.3033,1.7066,-0.69117,-2.2472,-0.25754,0.63523,1.2729,-0.69118,-1.4309,0.023047,1.681,0.58423,-0.86969,-1.3543,-0.69113,1.6555,1.0433,-0.23209,-0.94627,-2.1196,3.2115,1.1199,-0.66565,0.2016,-0.61464,-1.1248,-1.1503,-2.4768,10.379,0.17607,0.4567,-5.5376,3.5941,-2.9869,-0.1555,0.35464,-2.0176,2.1912,-0.30858,2.0891,-1.533,-1.1758,-1.2523,0.78825,0.66074,-0.51258,0.81379,-0.89523,0.43114,-1.9156,2.8289,4.2063,1.5025,-0.94622,-1.9155,-3.0634,-0.4616,1.9616,-1.0993,-0.15554,-1.2779,-0.43609,1.1964,-0.20653,-0.66568,2.4208,-0.94627,-2.2217,0.15061,2.4208,-0.97175,-0.79319,-1.3544,0.20161,-3.8541,3.3645,1.8086,0.30364,-1.0228,1.3495,-1.5584,-1.8645,2.9309,-1.7115,0.099546,2.1147,0.58421,0.22707,-1.3034,1.1964,-0.94622,-1.8645,2.2422,1.528,-0.94628,2.6248,-0.89526,0.30363,-1.686,0.2526,2.6758,0.25257,-0.3086,-3.0889,1.0433,-1.2268,1.477,1.5535,3.4411,-1.3798,-1.4564,-2.3492,-1.3034,0.048512,-1.7115,0.63525,-1.5839,1.8596,-0.25755,0.25262,-0.7932,-1.9411,2.4718,2.2167,-3.2929,3.4411,-0.078972,-1.3544,-0.97174,-1.0993,-2.1196,-1.2523,2.6249,-0.28304,-0.89524,1.8341,-1.2013,0.30364,-0.71665,-0.89523,0.76273,0.6862,-0.89527,-1.4564,1.7575,-0.30859,1.681,0.20161,0.66074,-2.3747,0.71176,-2.1706,-1.0228,-1.4819,1.4515,1.5025,-1.0993,0.2271,0.48219,-0.97176,-1.737,2.2422,1.8851,-0.28308,-0.30856,-0.74219,-0.74218,-0.99726,0.15057,1.528,-1.4309,1.6555,-0.33409,2.5228,-1.2013,-1.2779,-1.839,1.7321,-1.3544,-1.7625,0.48221,-1.4054,1.5025,-0.58916,0.91584,-0.86971,1.6811,-1.788,-1.2013,3.5176,0.22707,-1.686,-0.97172,-2.1706,-1.2013,-0.7677,1.9871,2.8544,-0.41057,-0.94622,-0.74218,-2.7063,7.0121,3.4666,-0.56365,-0.58913,-1.941,-3.497,1.7066,1.6556,0.4567,-2.0941,-0.002454,2.3442,3.9002,-0.92074,-2.2216,4.1553,-1.992,-0.64016,-1.584,0.17609,-0.41059,0.20161,1.477,0.12507,-0.69118,-0.99731,-0.05347,0.17611,0.58424,-1.4054,0.27812,2.0637,-0.10452,-2.1451,1.477,-0.28303,-2.9103,-1.5074,4.742,-0.64017,-0.58918,-1.2013,-0.20653,-1.2524,-0.18105,0.22708,-2.6808,1.6555,6.0429,-1.4564,-1.686,0.40568,0.27809,1.1454,0.22711,-2.1196,-1.788,-0.51262,-0.13001,0.20164,-0.33404,1.2984,-0.61462,1.7066,-0.20649,-0.58916,0.73726,-0.64017,-0.41061,-0.41057,-3.3695,1.2984,3.6451,0.15057,-2.2216,-1.5329,-1.1503,-1.1503,0.35464,-0.15551,-2.6043,3.3135,0.25261,1.6045,-1.0738,-0.35959,-0.13004,1.9616,2.8799,-0.66566,-0.89522,-2.2727,-3.2675,6.1449,-2.4512,-0.4616,3.4921,-1.6094,-1.8135,2.2167,0.32913,-0.15549,0.71176,-0.61463,-0.30855,0.25261,1.6045,-1.3544,-0.69116,2.0637,-0.46161,3.0075,-0.30855,-0.76767,-1.1248,-3.3695,2.1912,-0.30856,-1.9411,-0.078984,0.27809,4.4359,-0.30855,-1.5839,-1.3799,-1.2269,2.8289,3.2115,-0.46158,0.50769,0.048536,-2.2217,0.023023,-0.13004,-1.9666,-0.18103,3.4921,0.68624,0.12509,-2.5022,-0.181,-0.30856,2.0126,2.8289,-0.89522,-0.61463,-1.4564,-1.4819,-0.20655,0.35467,1.528,3.4156,1.0944,-2.7063,1.1709,-1.7115,-1.4054,-1.3033,-2.4257,6.0939,-0.92074,-0.79321,0.12505,-2.8338,-0.0535,0.66073,1.7576,-1.5074,0.30364,0.023047,-1.0738,3.9002,-1.7625,0.58419,-1.9921,-0.28308,0.25259,-0.4361,-0.02798,-2.1706,6.6806,-0.078966,-0.71665,-0.38508,2.4208,-1.5584,-3.7011,0.25257,3.0839,-1.5074,-0.89522,1.1199,-0.89526,0.43115,0.73726,-0.89525,-0.48713,-0.92075,2.2422,-0.23202,-0.078953,-0.43606,-1.3033,0.4057,2.3698,1.8086,0.48214,-0.15556,-3.4205,-0.51266,-2.3237,-1.0993,0.73725,2.7524,-1.7625,2.5228,-0.35954,-2.7063,6.4255,-2.2216,-2.1451,1.426,-0.71668,0.43115,-1.5585,-0.84425,1.7576,0.38017,0.38016,0.12509,0.27812,-0.053482,-0.79321,-1.4054,1.6301,-0.92075,3.9767,-1.4564,-1.2268,-0.6402,-1.9666,1.3239,-1.4309,0.71175,1.1454,-2.4767,3.0585,0.15061,0.78831,-1.2268,-1.3799,-1.8135,-0.43609,-0.10449,-0.76769,0.58419,1.2984,-1.4564,-0.43607,8.9508,0.73725,0.30365,-2.6042,-1.737,-0.18106,-1.6095,-1.3799,-0.23208,2.6248,1.5025,-2.0176,1.7321,0.89029,-0.078959,-0.23202,0.17607,-2.3492,-0.33406,1.528,2.8799,-0.79323,0.3801,-0.58916,-1.9155,1.7576,-1.686,2.4208,-1.839,-1.1758,0.55869,-1.3799,0.45664,0.17605,1.6045,1.3494,-0.30858,-1.4309,-1.9155,1.3239,0.63528,0.76278,0.40568,0.58417,-0.69123,-0.74223,-0.48713,-0.20655,0.17609,0.048543,-1.0483,0.25261,4.8951,0.86479,0.99235,-1.686,-2.6808,-1.686,-2.4257,0.78829,0.66072,0.73725,-0.18102,-0.20652,-0.28304,-1.6095,3.5431,-0.53811,-0.18102,0.55871,1.3495,-0.12998,-2.3747,3.7982,-1.5839,-1.4054,-1.3799,-1.2779,1.579,0.40566,1.9361,-1.9665,1.579,-0.078984,-0.99728,2.5228,-1.3544,-0.89526,1.0434,0.099583,0.60973,-0.46166,-0.10452,-0.92076,-0.35954,-0.46159,-1.3543,-1.1758,1.2729,5.7623,2.6758,-0.33407,-2.4002,-1.584,0.60971,-1.6605,0.48217,-2.1962,3.3901,-0.86976,3.7982,-0.76769,0.20161,-0.79317,-1.5584,-2.8338,-2.3747,4.946,4.9205,-0.94626,-2.3747,-2.5787,-0.97179,0.074038,-0.027998,-0.35957,0.86481,-0.15549,-0.99725,0.94133,0.023023,0.43117,0.45664,0.58421,0.40563,-0.053495,-1.4309,1.7321,-1.0483,2.1402,-0.61465,0.12508,-1.3799,-0.53812,-1.3543,-0.20652,0.023041,-0.51262,-1.3544,1.4259,0.048536,2.5483,-2.3236,0.30366,3.1095,-1.0738,-1.3289,-0.9718,-0.92078,-1.2269,-1.3034,4.2829,1.0179,-0.23198,-1.0993,0.38011,-0.18109,-0.079051,0.022992,0.1506,-0.002436,-0.69115,-1.2777,-0.13004,4.6399,1.1453,0.7117,0.86479,-1.4309,-1.584,0.30361,-1.5585,-1.2778,-1.6094,3.9002,1.6045,0.023041,-0.58916,-0.002491,0.25259,-1.9156,-2.8849,2.1401,10.787,-0.23204,-2.7063,-2.6043,-0.66569,-2.4512,3.8237,-0.89526,-0.3596,-0.05347,1.1965,0.8903,-0.41058,-0.56362,-0.56362,-0.76771,0.86482,0.83931,-1.0738,1.7831,0.12507,-2.9359,1.732,1.2984,-0.20652,-1.4819,-0.5126,-0.10449,-1.8901,-0.10452,2.8544,2.2932,0.22711,-1.6094,0.023065,-0.97176,-1.2268,0.60969,-0.79322,-0.89527,-0.0535,2.3187,1.579,-0.30854,-1.3288,-0.69118,-0.00243,0.27818,0.32914,1.3494,-2.4768,-2.1451,3.9767,0.22711,0.45666,-0.64018,-2.0176,-2.0431,0.02309,4.5635,-2.2216,1.3494,1.4769,-2.0176,-1.686,2.7269,1.9871,-0.86972,-1.0483,-0.86975,-0.25756,-0.20654,0.17609,-2.0941,-0.43607,4.844,1.0434,1.0433,-0.53816,-0.41057,-2.6553,-3.0889,5.9664,-1.4054,-1.2778,1.2219,-2.7573,-0.28302,1.477,0.89032,-0.86974,-1.0483,-3.1399,0.86477,2.2932,-0.81875,0.40566,-0.41054,-0.4871,-1.686,1.1454,0.12507,0.17609,-0.002491,-0.53815,3.237,0.5077,-1.7625,-0.4871,-1.5839,-3.1144,2.5738,-0.81871,-0.41055,3.033,0.50766,-1.2779,-0.64017,-0.99727,-0.84421,-1.1248,1.0434,1.528,0.17609,0.6352,-0.4361,-1.3289,0.25263,-0.7932,0.17609,3.3135,-2.2982,1.1454,-0.66566,-1.7115,-3.497,-2.6552,5.3542,1.7065,-1.3289,1.5535,-0.51265,0.22708,-1.4309,0.30359,2.7779,-0.74218,-0.56361,-0.81867,-0.10445,-2.7063,0.89032,1.1199,1.0433,-0.97177,-2.3747,4.6655,-1.1503,-0.18101,-0.02798,0.94131,-3.3695,-1.5584,0.40566,-1.1758,-0.053495,-0.002436,-2.2216,1.1454,-0.053476,2.4463,-1.5584,0.4822,3.9512,-2.0686,0.83933,-0.56362,-0.71668,-0.94626,-1.4053,0.023065,2.3698,-1.2013,-1.2523,-0.33412,0.48213,-1.2524,-0.64017,-0.94625,1.1199,0.89031,-1.0738,-2.1451,4.3338,1.7831,2.4973,-0.18098,-3.0124,-3.395,-0.81873,4.2828,-3.1654,-1.6095,1.1199,4.1553,-1.4309,-2.1706,-0.25756,4.2828,0.9413,-1.2013,-0.58914,-0.6657,-0.43614,-0.74219,-0.86969,-2.6552,3.3901,2.0381,2.7269,-1.533,-0.97179,-1.4309,-0.61465,0.12509,-1.0993,-2.2982,7.6498,-0.0535,-1.0993,-1.3799,-0.71668,2.3952,0.20158,0.17609,-1.0993,-1.3799,-1.3799,-0.15549,-0.51262,-0.35957,-0.13001,-1.0483,5.0225,-0.74222,-1.788,-5.2061,8.7467,8.1345,-0.79322,-3.1144,-2.2727,-1.5075,-0.35958,0.17609,-1.0483,-0.28305,-0.66565,2.3698,-0.053464,0.81378,-0.28306,0.099564,1.579,1.9871,-0.71668,-1.1759,-1.2269,0.048512,-0.46162,0.58421,-0.51263,-0.8442,1.8596,-0.74222,0.78825,0.48219,-1.1503,-3.0124,1.9616,0.94134,0.83931,3.4411,-0.64016,0.5587,-2.4512,-3.1399,-1.0738,3.8747,1.8086,-1.0483,-3.6501,1.426,-0.13001,-0.43609,-0.28303,0.25264,-0.30855,-5.104,10.405,8.3641,-1.2779,-2.9358,-2.5277,-1.2778,-2.1961,-0.35956,0.38017,-1.2778,0.35465,1.7575,0.81375,-0.232,1.1964,-0.8697,-1.4564,0.40566,3.8492,-3.2164,5.7113,-1.1248,-0.35954,-1.7115,-1.0483,-0.94628,-2.2471,-1.686,-1.2523,2.6503,0.8648,0.1506,0.53321,-0.53812,-0.25754,2.5738,-1.4819,-2.0941,2.6759,-2.1961,0.35464,-1.2268,-1.3033,-0.35957,0.43115,-0.84424,0.81379,2.1657,0.099577,0.12509,-0.41059,-1.3544,-0.71669,2.4718,0.15057,-1.4819,-1.2523,2.1147,-0.53812,-3.548,-0.078972,5.5072,-0.13002,-1.0483,-0.81872,-2.0176,-0.2065,1.7321,1.6556,-1.0738,-2.3236,2.6759,-0.002472,-0.51267,-0.35963,-1.7115,2.6503,2.5993,-1.9411,0.66077,-0.43609,-1.0228,-2.1706,0.68626,-1.2268,2.1402,-1.839,0.60971,0.43115,2.3187,-1.0482,-1.3288,-0.89521,-0.28306,-0.33409,-2.1962,0.76272,4.997,0.58419,0.40566,-1.1758,0.2526,-1.1758,-1.9921,0.71176,-0.61462,1.0944,-0.3851,0.6607,-0.41061,-0.61465,4.2828,-0.28305,-3.344,-4.3133,2.3698,2.9054,-2.4002,0.12507,-0.28306,-1.788,1.6555,-0.25755,0.91579,0.15059,-0.69118,-0.13001,-0.69114,-0.181,-0.002454,1.4005,1.7831,-0.79322,-0.71668,-1.635,-1.992,-0.15549,1.8086,0.25262,-0.23203,-0.56368,0.20157,-0.18106,-0.6657,1.8341,0.048531,1.3494,-1.3034,-1.9666,-3.0124,3.6707,1.4005,-0.69117,1.528,-1.4054,-2.1706,-1.2268,-0.89524,2.7013,-1.7115,-0.97178,0.81378,1.2984,2.7013,-0.79322,-0.15553,-1.9155,1.0179,0.73731,-1.2778,-1.8135,-0.9718,0.68617,0.07402,2.9054,-1.8135,1.9616,4.1298,-1.5584,-1.0483,-0.97172,-1.4564,0.35464,-0.15556,-0.33411,0.4822,1.2985,0.68629,-1.1758,1.3749,1.8341,-0.97183,-1.2524,-0.3086,-2.5277,-1.6095,-0.94624,6.7826,-0.74216,-1.89,-2.1706,-1.1248,-0.94627,-0.28306,0.55867,-0.6657,1.5025,0.17613,0.27812,0.20159,0.35466,-1.0228,0.68622,-0.6912,1.2219,-1.7115,-0.41058,-2.2472,3.4156,-0.89521,0.40568,-0.97174,-2.6808,1.0943,4.6144,-1.0228,-0.94623,-2.0941,-2.3236,0.099583,2.7013,1.528,-1.1248,2.4463,-0.92072,-2.6807,-1.0228,1.7576,1.9106,2.7014,-2.0176,-1.4564,2.3953,-2.2471,1.5025,-1.2778,-0.89521,-1.7115,3.5941,0.2271,0.55869,-1.8135,-0.38511,0.58421,0.22711,-0.10447,-0.97174,0.53319,-1.2014,1.8596,0.50766,-0.053488,0.78829,0.43115,1.0944,-4.5173,3.9767,1.9361,1.1964,-0.53811,-1.0228,-2.2216,-1.2523,0.32907,-1.0994,-1.5329,6.8081,1.426,-1.6605,3.135,-1.4309,-1.3544,-1.6605,-1.5329,1.9106,-0.92071,1.7576,-0.43608,-0.76771,-2.2217,2.9564,1.1198,0.60972,-0.97176,-1.5839,-0.69115,-0.58913,0.71175,-1.839,1.7831,0.48214,-0.25758,-0.81871,-0.48715,4.2318,-0.76768,-0.86972,-1.6859,-0.89521,-1.1758,0.5332,5.0225,-0.15553,-2.1196,-1.5074,-1.2013,0.5077,-1.4309,-2.4767,4.1808,-0.92072,-0.66564,0.63525,-1.5329,2.8289,-0.25753,0.35462,-0.64018,-0.56364,0.89029,0.35465,-1.737,-0.66566,6.4,-1.1503,-0.33407,0.20159,0.048549,-3.0379,-1.6094,-0.99726,-0.15553,0.048543,-0.33407,-2.4257,5.2266,0.30366,0.55874,0.45668,0.43114,0.074044,-0.66567,-1.5074,1.0434,3.1094,-1.8901,-1.0993,3.3901,0.15058,-0.7422,-1.788,-2.1706,-3.1144,2.3698,-1.9411,-1.6095,4.1298,1.8086,0.09957,-1.788,-4.1347,6.7826,2.3953,-2.1196,1.2729,-2.5022,-2.5277,-1.2523,2.1147,-0.86975,-0.00243,0.20159,0.66074,-0.51259,-0.64016,0.17608,-0.20653,0.73725,0.12512,-1.0993,5.2522,-1.4818,0.76277,-1.1248,-1.1758,-0.99727,-1.5839,4.1298,-1.0483,2.8799,-1.5329,-0.1555,-1.839,2.1147,-0.89524,-2.1451,4.793,2.0637,-2.8593,-0.35957,-1.737,-0.02798,-0.33405,-1.4819,-0.8442,0.17608,0.83928,-2.1451,6.8846,-0.79324,-0.94626,-0.66567,-1.0483,-0.56364,-0.61467,0.023065,-0.46159,-0.33405,-0.35953,1.3749,-0.25756,-0.92076,1.8086,0.63523,2.2932,-1.0993,-1.2778,-1.7115,-2.4257,2.4718,0.20163,-0.84419,-0.35956,1.7831,-0.15555,-0.10451,-1.1248,4.5634,-0.20652,1.7576,0.4567,-2.6808,-2.4257,-1.7115,-1.4819,-2.4002,5.2776,-0.48708,0.63526,0.71175,1.1199,-1.2524,-0.56364,1.1198,1.2984,-0.97176,-0.69117,-0.15549,-0.8187,-0.86969,-1.2523,-0.10452,2.1657,0.15058,0.25261,-1.3544,-3.344,7.5223,3.5176,-0.51263,-1.737,-1.6605,-0.71669,-0.53812,-1.3799,-0.94625,-0.10451,3.3135,0.20161,1.0434,-1.0228,-0.12997,-0.61464,-0.28304,-0.33405,-0.30858,-1.635,-3.0379,3.8492,9.4099,-0.69118,-2.4257,-2.6808,-3.446,1.2219,-1.1248,0.17607,-1.0228,3.5176,0.15059,0.81378,0.53317,-1.1758,1.3749,-0.92074,-0.20654,-0.53812,0.30363,-1.7115,2.8799,2.6503,-1.1758,-1.4819,-0.38509,-1.1248,-1.9666,1.7066,1.9107,-0.002405,-0.28305,0.5077,0.099546,-2.8339,4.7164,-0.94627,-3.0889,3.0585,0.22712,-3.1655,1.3749,0.20158,4.7675,-2.2982,0.99231,-1.5074,-1.3289,-1.2013,-1.0483,0.86483,2.1147,0.66075,-0.48711,-0.25754,-0.71665,-0.41056,0.35465,-0.66566,1.0434,-0.02798,-0.92074,4.844,-1.5329,-2.2471,-2.3747,-1.635,3.2115,-0.23205,0.17608,-0.28305,-1.4564,-1.0993,2.2677,2.4208,-0.33409,-1.2014,1.6045,-0.002454,-0.76767,-0.9207,-0.4616,-0.28305,1.8086,-0.20653,0.17611,-0.53812,-0.99725,-1.0228,0.55873,-0.53812,1.0944,0.60975,-0.28306,0.43116,1.9616,-1.5839,-2.4257,1.6045,3.1095,-1.4054,-2.7063,-0.28306,1.8086,-0.66569,-2.7063,4.8695,-0.027944,-0.66563,2.8034,-0.15554,-0.74223,-1.3544,-0.46163,-0.18105,0.40563,-0.56362,1.7831,-0.84419,-0.38505,0.22712,0.8648,0.27813,-0.053488,-0.23207,-0.33409,-0.027944,-1.9665,-0.51262,1.1199,-1.0228,5.5072,1.426,-2.0941,-1.3289,-0.92074,-1.1503,-1.0993,1.1709,-0.181,0.78828,0.81378,-0.69116,0.20159,-1.4564,0.96683,-1.533,-2.8338,10.43,-2.7828,-2.2982,2.9054,0.83927,-1.9921
-0.35957,0.38016,0.48219,-0.25754,0.53319,-0.30856,-0.64017,-1.1503,-0.35959,0.30361,1.4004,-0.48713,-1.2779,-0.66569,1.5535,0.9158,-0.28306,0.099546,-0.18102,-0.4616,0.27812,-0.51262,-0.5126,-0.053476,-0.053464,0.20161,0.17609,0.099577,0.048561,0.099577,0.12508,0.12507,0.023047,0.048555,-0.002467,-0.18102,-0.15551,0.023029,-0.20653,-0.71668,0.074038,0.12506,0.58422,0.12507,-0.13001,-0.71669,0.12508,-0.48711,0.25261,-0.41059,-0.89522,0.71177,1.6556,0.38016,-0.8442,-1.0993,-0.33405,-0.74217,0.45669,-0.33406,0.048561,1.2219,-0.41057,0.048561,-0.027969,-0.13002,-0.0535,0.099564,0.023041,0.074051,-0.15549,0.074075,-0.027956,-0.053458,-0.25753,0.32915,-0.1045,-0.18103,-0.38509,-0.1045,0.50769,-0.10449,-0.28306,-0.18103,-0.48713,1.2474,-0.58915,-0.002485,-0.25753,0.074069,0.63523,-0.41058,-0.18101,1.0434,-0.18103,-0.81871,1.0689,-0.89526,-1.584,1.0433,2.5483,-0.89525,-0.79321,-0.61466,-0.18104,-0.35957,-0.1045,0.023047,0.074081,0.17609,0.2526,0.048543,-0.05347,0.22711,1.0944,-0.10449,-0.51259,-0.41058,-0.10447,0.40568,-0.51262,-0.53813,-0.41058,0.048561,0.074057,-0.027974,-0.25753,-0.053495,0.66072,0.71175,-0.35957,-0.58914,-0.46159,0.76276,2.0892,-0.94627,-0.46162,-0.56365,-0.69117,-0.86974,0.023029,3.339,-0.30855,-1.0993,-0.30856,-0.33407,1.3239,-0.23202,-0.56362,-0.28305,-0.69115,-0.181,0.38016,0.78827,-0.002467,-0.1045,-0.027974,-0.13001,-0.053495,-0.10449,-0.002479,-0.053495,-0.10449,-0.05347,0.023041,-0.027969,0.074044,-0.027974,-0.38508,1.3239,-0.61467,-0.38508,0.66074,-0.86972,0.58422,-0.10451,-0.53814,0.048543,-0.18101,-0.92072,0.96684,-0.61464,1.9106,0.15057,-0.64017,-0.41059,0.074057,-0.89522,0.8393,-0.18101,-0.1045,0.074057,-0.053464,-0.027962,0.023041,-0.053488,-0.002467,0.023047,-0.002485,-0.10452,0.048531,0.023035,-0.053482,-0.027969,0.048549,-0.053488,0.023047,-0.027962,-0.10449,-0.41059,0.17609,0.2271,-0.48712,-0.35959,1.2219,1.2474,1.5535,0.15059,-1.6094,-1.5074,-0.66567,0.25262,0.023035,-0.20655,-0.15551,0.099559,-0.002472,0.58421,0.73726,0.074051,0.20161,0.12509,-0.23203,-0.078953,-0.23202,-0.12999,-0.053495,0.17607,-0.079002,-0.25756,-0.079008,-0.002479,-0.002479,0.12507,0.074062,0.048549,-0.053476,-0.23204,-0.12999,-0.46159,2.3698,-0.53812,-0.89522,-0.43611,0.66071,0.023035,-0.33407,-0.18103,-0.20653,-0.30854,0.12508,0.30362,0.30364,0.12509,-0.053464,-0.48709,-0.15549,1.5025,0.35464,-0.79319,0.5332,0.63524,-1.0228,-0.4361,-0.12999,0.074069,-0.25753,-0.13001,-0.053476,0.048536,0.22708,0.17609,-0.002454,0.20162,-0.18102,0.50769,-0.20655,0.55868,-0.58914,1.1709,-0.71666,0.48219,-0.61464,-0.61464,0.30363,-0.13002,-0.10452,-0.10449,-0.027974,0.12508,0.1761,-0.02795,0.074081,-0.10447,0.91584,-0.66565,-0.74218,1.4515,0.048536,-1.4309,1.0178,0.89031,-0.64015,-0.35958,-0.51261,-0.58913,-0.13,0.32913,0.30362,1.0178,0.22711,-0.18104,-0.23203,-0.18103,-0.23205,-0.41059,0.15057,1.5025,-0.66566,-1.4564,1.5025,0.023059,-0.38506,-0.33406,-0.18102,-0.1045,-0.1045,0.023035,0.099546,-0.002479,0.20159,0.12507,0.15057,0.099577,-0.13,-0.35958,-0.69118,2.2422,-0.38508,-0.94625,0.25263,-0.027974,-0.61464,1.375,-0.46161,-0.74219,-0.97175,2.9564,-0.13001,-0.35958,-0.46161,-0.23204,0.048555,0.25262,-0.51263,-0.002479,0.17607,1.426,-0.181,-0.28305,-0.41058,-0.33408,-0.13001,0.12505,-0.053482,1.2984,-0.58914,0.25261,-0.25755,-0.53814,-0.20653,-0.1555,0.09957,0.22711,0.17608,0.27811,-0.15548,-0.28303,0.20161,1.0944,-0.53813,-0.58915,-0.58911,-0.181,0.023059,0.68626,-0.41058,-0.38505,-0.18101,0.27812,0.68626,-0.002461,-0.41058,-0.64016,-0.58914,1.477,0.53319,-0.58915,-0.053488,0.48217,-0.64017,-0.35958,-0.33406,-0.15551,-0.23204,-0.15551,-0.56362,2.5228,-0.15552,-0.35957,-0.53811,-0.12999,-0.10447,-0.053476,-0.027969,-0.002467,-0.027974,0.023035,0.12507,0.074051,-0.10449,0.023054,-0.027962,0.074051,-0.002467,0.074051,-0.18101,-0.07899,-1.3289,1.4515,0.99234,0.99234,-1.0483,-1.0483,-0.58915,0.5587,-0.25753,-0.2065,-0.181,-0.35956,-0.30855,1.5025,-0.71667,1.3749,1.3239,-0.46161,-0.33408,-0.41059,-0.4361,-0.48711,-0.86971,2.3953,-0.13,0.81377,-0.48712,-0.66568,-0.30858,-0.10451,0.048543,0.12507,0.12509,0.1506,0.25262,0.12507,0.17609,0.023047,-0.027987,-0.30857,-0.51264,0.15057,-0.35956,2.1147,0.68624,-0.86972,-0.20652,-0.64015,-0.51261,-0.35956,-0.12999,-0.002448,0.074069,0.32917,0.27815,-0.1045,0.099564,0.30362,-0.027998,1.0433,1.477,-1.0993,-0.51263,-0.46161,-0.33407,1.375,-0.79322,1.63,-0.66567,-0.30855,-0.33405,-0.56362,0.63523,0.074062,0.45667,-0.46162,-0.027993,-0.027987,1.1964,0.5587,-0.89523,-0.7932,-0.41057,-0.20652,0.58422,-0.053458,0.023059,0.12508,0.20161,0.023054,-0.079002,0.15057,0.17609,0.15059,0.12508,-0.2065,-0.28303,0.38016,0.30363,0.12509,-0.86971,0.66075,-0.56362,1.0944,-0.41058,-0.79318,0.40568,-0.053495,-0.053495,-0.20652,0.38014,-0.35957,0.023065,0.20162,0.83931,0.1761,-0.13,-0.69118,-0.48712,0.68623,1.9361,-0.46161,-0.89526,-0.69117,-0.23203,-0.027974,-0.078984,0.048549,0.12508,0.15059,0.45667,0.15057,-0.51262,0.2016,0.68622,-0.20655,-0.20654,-0.027987,-0.20653,-0.30858,-0.53815,1.579,-0.002479,-0.58916,1.7576,-0.74221,-0.48714,-0.25757,-0.10452,-0.15553,-0.28307,0.048536,0.94131,0.12507,-0.23202,-0.4616,0.8393,1.681,-0.4106,-0.51263,-0.76771,-0.58915,0.2526,0.66072,-0.23204,-0.28306,-0.18103,-0.13002,0.074038,0.023029,-0.027974,0.023041,0.048549,0.15057,0.15059,-0.18101,0.27812,-0.12999,-0.25753,-0.027956,0.81377,0.20158,-0.25755,-0.20654,-0.33408,-0.53814,0.58419,0.99233,-0.4361,-0.28306,-0.25754,-0.23204,-0.46161,-0.58915,3.3391,-0.38509,-0.86973,-0.25753,0.25263,-0.38508,-0.46159,-0.56362,1.0179,0.81381,-0.30853,-0.23204,-0.13001,-0.053495,0.048536,-0.20655,-0.3851,0.38013,1.0944,-0.23205,-0.48712,-0.69117,0.32913,0.71176,-1.3799,1.1709,-0.28303,-1.0483,-0.86974,-0.078996,3.237,-0.43607,0.45669,-2.0941,-0.58916,-2.0431,0.3036,2.5993,1.5025,-3.3695,-2.3747,5.6602,-1.1248,0.76283,2.1147,-5.104,-8.4455,7.2672,-0.97188,0.073965,0.94131,2.0637,-3.752,-3.1652,7.3183,-8.6496,1.1963,0.7372,1.9361,0.27803,-7.8589,4.3848,1.6555,3.4156,-3.0632,-5.4355,0.6097,6.859,-0.079021,1.375,-4.1602,-1.4819,0.58429,12.19,-3.2421,-4.696,-0.56372,-1.5329,-7.5272,-1.4563,1.324,13.185,2.8034,-1.7115,-4.0836,-3.8796,-2.5277,-1.1248,-2.2472,0.176,-1.2014,8.4407,-0.69105,1.2219,-0.35965,1.5534,-1.7115,-3.0889,-2.1961,-0.74221,5.9154,2.1658,-1.6604,-5.5888,3.7216,-5.359,0.83943,-0.79295,0.8649,-2.2218,-1.023,0.78808,-0.76781,-1.9921,2.6503,-1.4564,5.3798,-3.2928,2.0893,3.2626,1.4005,2.6759,1.681,1.6555,-4.2113,-3.3185,0.53318,-5.2825,-2.3491,-2.6043,6.5785,13.338,-1.8391,-3.3185,-3.3439,-2.9103,-0.51262,-6.5579,4.4103,5.8132,1.2219,-3.8031,-0.23202,-2.1961,0.63524,-0.46161,3.4411,0.40558,-0.64011,-0.30844,-4.1602,5.6603,1.7575,-0.69129,-0.79332,-0.74233,-2.1452,-0.69124,0.40564,-2.2726,2.7014,2.4208,-3.701,-1.6604,10.303,-0.94619,-3.0889,-3.6501,-2.2217,-2.7829,-1.8391,5.8132,-0.46169,13.619,-3.7776,-0.4871,-3.599,-1.4309,-0.12999,-2.1196,-1.0993,3.9512,2.0127,0.96683,-1.2778,-3.344,0.35462,-0.078959,-0.61463,1.2474,2.2167,0.40563,-1.3034,-1.4053,-0.43607,2.0636,-3.2675,2.5228,2.4208,-5.2826,-5.6652,14.792,3.4155,-2.0686,-3.2674,-3.7521,-1.3544,0.25262,3.6197,0.99243,3.0585,-1.4309,-2.8594,-0.38513,-1.0739,-0.74226,0.71172,-0.56364,-2.5277,10.405,1.6556,-1.5838,0.20163,-1.941,-2.9358,1.2984,-0.92078,-1.6605,-4.0072,9.3843,-0.81873,-3.5481,0.099588,-1.5074,-1.8134,0.25278,-1.992,-2.1962,2.8543,7.4967,0.40561,0.58419,-2.6553,-1.3799,-1.5584,-4.3388,3.5176,4.1808,1.426,0.63527,1.4515,0.17611,0.12508,-1.1758,-0.89525,-0.43609,-0.66561,1.4005,2.0891,0.12504,1.8596,-1.3034,0.099559,-0.74219,-3.9306,3.6707,3.6452,3.7217,0.96686,-4.0581,-2.5277,-2.5278,-1.7115,0.15062,0.58427,-2.1961,1.0178,2.5227,-1.1503,0.38013,9.6394,8.0324,-1.5329,-3.9306,-2.8593,-4.0583,1.3239,1.4259,-1.2014,-0.13002,1.6045,-2.2216,-1.5074,1.0944,1.0434,-0.002461,-2.0941,1.3494,-0.56362,-1.2523,2.3188,7.8539,0.12511,-1.8135,-3.0634,-1.8135,0.55867,-2.1961,-1.4819,4.0787,1.0688,0.40563,-0.56368,-3.3695,-0.66564,0.89034,-3.0123,5.6602,-0.84426,1.0433,-0.15551,-1.5839,-1.4819,-0.2066,2.0892,1.6555,-0.64016,0.99236,-0.64012,-0.61463,-1.0483,-0.99726,-2.1451,4.3849,-3.5736,5.099,-1.2269,2.8034,-2.6808,1.477,-2.8083,-2.5532,-2.1195,0.53324,3.7216,0.81375,-0.89527,0.22705,-0.43614,-1.5585,-0.33407,1.1964,1.0434,1.1709,-1.4819,2.9564,-4.1092,-1.2779,7.4968,1.2473,-3.0379,-4.4664,-1.3034,-1.4564,1.3494,-1.6605,4.7674,2.4718,-0.232,-1.839,1.0434,-1.4564,0.76272,-1.3544,-0.28307,-2.3747,2.6503,-1.9155,3.5432,4.4614,0.71182,-1.5074,-0.35955,0.048549,-1.8901,-0.84426,-1.8646,1.9361,0.58414,-0.027974,4.8185,-0.69115,0.48217,-0.1045,1.7576,-1.2268,-1.9921,-2.0431,1.63,-0.25754,1.2219,-0.61467,-1.839,0.60971,-0.99726,2.3443,0.91585,1.6045,3.6451,0.25258,-0.99726,-0.89522,-2.4512,-1.0482,-0.74216,-1.635,3.7472,-0.25759,1.2984,5.1246,-1.1248,-1.737,-1.6605,-3.1399,0.66079,-0.53817,1.0688,-2.6808,5.5837,-1.8135,-0.7167,-1.0228,1.0689,-1.5839,-2.6298,1.1964,2.5228,0.99233,-1.635,1.7066,-2.043,-2.8083,5.8133,4.4104,-4.0327,0.40566,2.9054,-2.4257,-2.6808,-1.8135,1.8597,-0.69115,-4.2877,0.60971,10.711,-0.58918,-0.94628,-1.3034,0.48219,-4.0327,-0.13001,2.2933,0.17612,1.6555,-2.0176,-1.9666,3.3135,1.477,1.3239,-3.2165,0.074026,-0.07899,0.76277,-1.6859,0.81378,1.9616,0.45666,-2.6553,4.9715,-1.7879,0.48221,-1.4309,-2.8594,-0.28306,3.6706,-0.28311,-0.86974,-0.07891,-0.35956,0.71171,-0.3341,-1.3289,-1.0738,3.8747,-1.839,-0.46157,11.425,-0.4871,-3.497,-3.5226,-0.51264,-1.0228,-1.0483,-0.81866,-2.4512,1.6555,3.4666,0.023035,-2.4257,1.1199,-0.61467,1.2984,0.71175,-0.027974,1.732,-1.2013,-0.18098,-1.941,4.7675,-2.3237,-5.3846,2.1402,0.55869,0.73726,-1.1248,-1.5584,-3.6245,-1.941,6.3489,6.8336,1.1964,-1.2779,-1.0228,-1.3289,-1.1248,-0.51258,-0.002394,-4.3898,-1.9156,11.221,6.8081,-0.69111,-3.3949,-3.497,-2.8848,-1.5585,-0.15558,0.15057,-0.79319,0.20163,3.4156,0.96686,1.7321,0.22713,-1.4054,0.20161,2.0892,-1.89,0.074044,-0.94628,0.89029,0.40565,-1.4309,-0.89523,-2.1962,0.43116,5.0991,-2.3491,-1.4054,-2.2472,-2.4768,-2.1707,4.6399,0.73723,0.8903,0.074081,-2.1706,-1.3288,3.237,-0.18101,0.22712,-0.027987,-1.0228,-0.81874,-1.4564,2.7014,0.1761,1.6045,0.53316,2.4973,-1.6095,-2.0431,-1.2523,-0.58913,-1.533,2.3697,1.2219,-0.027993,-4.9254,7.2673,1.8087,-1.0227,-1.2523,-0.97177,-0.92077,0.55872,1.0944,-1.2523,0.074051,0.023072,1.6555,-1.3799,-8.0374,12.292,1.5791,-2.0175,1.3749,-3.14,-2.9614,-2.1962,-1.4564,-0.56364,-0.5126,2.4718,-0.92072,4.1043,-2.9358,3.3391,0.40566,1.1709,-0.35957,0.074051,-1.6349,2.7524,-0.46165,-6.0223,3.288,-1.0738,0.45669,2.8034,-1.4309,-0.53811,0.1506,0.023072,-1.4564,0.27809,-2.2216,1.1454,2.0127,0.15056,0.35463,-0.84423,-0.35957,-0.81863,-1.2778,-1.3799,3.1349,-0.43611,0.91587,-1.1758,-0.94623,-1.7115,-0.86975,-1.9666,1.8086,5.0991,5.4817,-2.2216,-3.4204,-3.8541,-1.4564,-0.28307,-0.18103,-0.25758,1.528,-3.446,0.074026,2.9564,9.9711,-1.3798,-1.9665,-0.1555,-2.7318,-1.8135,-1.9156,4.4869,-2.5022,-0.6657,-1.1504,0.86472,1.2729,-0.35954,-0.23199,1.5536,-1.533,1.1964,-1.6095,4.895,1.3749,0.20159,0.71173,-1.737,-1.9411,-0.92074,-0.71668,-1.0738,-1.1503,-0.58911,6.6806,0.86481,-1.8135,1.2984,-3.6246,-0.66567,3.1095,0.15054,-0.51267,-0.89529,0.91578,-0.43609,-4.2623,-3.9051,6.8591,2.8034,-0.07899,-0.7932,-1.2524,-1.584,3.033,-3.0379,2.0126,-0.20653,-0.30852,-0.69113,-0.46158,-0.53817,-0.9718,-2.6553,11.501,-0.69115,-1.7625,-1.0993,-1.2523,-1.533,0.63521,5.2521,-0.97172,-1.5584,1.2219,-0.76769,2.5993,-0.74221,-3.1654,0.55869,0.12509,-0.23203,-1.6095,0.66072,1.1964,-0.99725,-4.9254,7.7009,1.7831,3.6197,-1.6349,-3.14,-2.8339,-1.635,-2.2727,0.074026,-0.38508,0.30364,-0.25753,-0.53814,4.844,0.71178,-0.74212,-0.46154,0.20156,-0.41063,-0.18104,-0.51264,2.3697,-1.4054,-3.3695,0.2271,0.12507,1.1199,-0.53814,-0.76771,-1.3288,0.22716,0.76278,-0.99729,2.3187,0.60973,-0.4361,1.477,-1.0228,-2.1196,-0.002467,-0.30856,0.45666,-2.0431,0.43115,-2.0176,1.1709,0.53321,-1.1503,1.324,0.20157,-2.5788,1.7831,-0.20652,-2.6808,2.5994,1.2984,-0.74221,-1.2524,-4.2113,2.0127,-2.5532,3.6962,0.91584,0.15054,-1.5075,-0.79328,-0.76777,-0.53817,0.83927,-1.0228,2.5228,-0.79316,-2.8338,4.2064,-0.41053,-0.97177,-3.1655,-2.0176,1.4004,3.0329,1.1199,-0.61469,1.8086,-1.9155,-2.3237,-1.4054,2.8034,1.0434,-1.6094,0.8903,2.2422,-0.48711,-0.99731,-0.56364,-0.76771,2.88,3.0586,-1.89,-1.4054,0.78824,-1.737,-1.8645,0.83931,0.66077,-1.4309,2.6503,-0.53812,-1.4309,0.38018,0.27816,0.023035,-0.94625,-0.76773,2.0636,2.3697,0.048555,-0.33406,-3.9561,4.1553,1.8086,-0.48714,-1.737,6.604,-1.6094,-2.7317,0.58427,-0.56365,-1.0228,-0.30862,2.3952,-0.10453,-0.81874,1.0689,-0.86973,-1.0738,-0.86972,-0.05347,-0.00243,0.58422,0.91583,0.40567,-0.027974,-0.18105,-0.20656,0.5587,0.8903,-1.0228,0.099588,-0.53809,-0.76767,-0.66566,-0.46161,0.5842,-1.0738,3.8492,-2.3237,-0.99727,-2.4002,6.2725,0.86478,-2.2471,-0.002436,-1.1758,-0.76772,-1.7115,-1.8391,1.681,2.9309,-0.79319,-4.0071,8.6447,-0.10452,-1.1503,-4.1347,-5.6142,6.655,-0.46162,-1.3799,-1.4564,1.324,2.7779,2.7013,0.6607,-0.92072,-0.84419,-1.1503,-0.35956,0.81379,-1.9921,0.40565,1.8596,0.20162,0.58422,-0.99726,-2.9869,2.2422,2.2167,-0.6657,-0.84422,-1.5074,-1.3799,1.681,2.4208,-0.86974,-1.4309,-1.2269,4.946,-3.548,1.3495,2.6759,-1.1503,-1.2013,-1.1503,-0.028005,-0.028054,-0.81872,0.20158,0.71181,-1.7369,5.5583,0.63523,-0.48714,-1.4309,-1.5329,-0.027944,-2.4002,1.0178,-1.4565,4.1808,0.83929,-0.61465,-1.7625,-0.71664,0.15058,-0.56367,-1.1248,0.78831,0.89033,-3.1909,-0.18108,3.6196,0.83927,1.2474,-0.7422,-0.81871,-2.0941,-0.86969,-1.4053,-1.1248,3.2625,0.38014,0.50771,-1.3288,-1.0483,0.35461,1.8851,0.89024,-0.84425,1.2984,0.27813,0.30361,-1.7115,-3.7011,1.8086,2.2678,0.43119,0.074118,-1.6349,-1.2523,-1.5585,-0.89524,0.6097,4.9205,1.1198,-0.48714,-2.8338,1.4259,-1.3544,3.0585,-0.10447,-1.3033,2.7014,-3.3695,-0.7422,2.8034,0.40568,0.66076,-1.2524,0.12506,-0.79317,-1.7625,-1.4564,1.7576,0.38011,-0.15551,0.22715,0.50771,-1.0738,0.02301,-0.6147,1.375,0.45669,0.53315,-1.584,-0.92076,3.2625,0.35465,-3.0124,0.35467,0.12512,0.66072,-1.788,3.9767,-2.1195,1.5535,0.50766,-0.25761,0.17606,-0.58914,0.48219,-0.71666,-1.0993,-2.0941,3.39,-1.2523,4.8695,0.83933,-3.8285,-2.1961,-2.4513,1.1453,-1.9156,0.099534,0.71173,1.63,0.023054,-0.56362,-0.56362,-0.86972,-0.51263,1.681,0.86477,-0.10447,-0.30855,-1.0993,-2.7318,5.7878,2.2932,-0.71669,-0.99727,-0.51262,-1.584,0.81376,-1.3289,-3.0634,4.3594,1.8085,-0.20653,-1.4564,-3.9051,4.3849,1.324,-0.71666,-0.53815,1.1709,-0.69118,-0.20656,-0.89527,1.2219,-0.8187,-0.71668,0.8903,2.7779,0.5077,-1.3034,0.91583,-1.0993,-1.6604,2.0637,-0.079008,-1.0993,-0.64016,-0.43611,-0.48714,0.074038,0.20157,-0.79324,2.0892,1.6556,-0.027962,-1.0228,1.6811,0.17609,-2.2982,-0.28299,0.023078,-0.35959,-1.2524,1.8596,1.8596,-1.5585,-2.4257,-1.0993,-0.58917,0.12505,-0.94622,-1.7115,5.2777,1.7065,0.27813,-0.76771,1.375,-0.027998,-2.7828,-2.0686,7.0632,0.22709,-1.3544,-0.92074,-1.4819,-1.2269,-0.38513,-0.74216,0.04858,-1.5839,6.1194,1.7065,0.27809,-1.4309,-1.788,0.81381,-1.3288,-1.0738,1.1453,3.9002,-0.74221,-1.5074,-1.0228,-0.71666,0.15062,0.099608,-1.3288,0.71176,-1.1758,1.3495,1.9361,0.45662,0.12503,-0.0535,-0.53814,-0.46161,-0.79311,-0.43607,0.2526,-0.28305,-1.8645,-0.99734,10.099,-0.2576,-2.5022,-1.0993,-1.89,0.15052,-1.1758,1.222,-1.6859,-0.79305,-0.079021,0.5586,3.9001,0.048512,-1.6605,-0.079039,-0.18105,-0.76772,0.35464,-0.027974,-0.48707,-0.41055,1.3495,0.58425,3.1095,-1.686,-3.0379,-2.8593,-0.51266,3.3901,-1.5074,-1.7625,1.1198,1.0688,-1.2778,-1.3543,0.94133,-0.89526,2.2677,0.15059,0.81381,-0.64009,-1.8645,-0.15553,1.7576,-1.3799,-2.4767,2.2677,-0.3086,0.55872,0.81378,-0.86972,-0.61463,-0.66568,2.4717,-0.66572,-0.053525,1.1709,-0.38503,-1.1247,-3.6755,-0.33407,1.63,7.0887,0.99233,-2.2727,-3.1144,-1.8135,-0.97177,-0.86974,0.023029,0.63522,3.033,0.38019,-3.0634,0.12505,10.634,-0.79321,-1.4819,-2.1962,-2.0941,-1.3544,-2.0431,-0.64015,2.0381,0.6097,-0.053439,-0.69115,0.48216,1.8596,-1.4819,1.6301,0.83933,-0.81868,-1.5329,-2.0941,-1.686,0.2526,0.83924,2.5227,1.2729,-1.2778,-0.97176,1.3239,-2.1451,0.30366,-0.33406,0.09957,-0.66569,-1.4054,1.3494,3.6961,0.074044,-0.97169,-0.46156,3.135,-0.84421,2.5483,-2.5022,-2.5787,-0.61463,0.76272,-1.941,3.3136,-1.0228,0.73728,-1.1758,0.30364,-0.4871,1.7321,2.2167,-0.053464,-0.76771,-0.74221,-0.41061,-0.81873,-0.10449,-0.89526,-1.8391,7.5733,-1.5074,-0.48706,-0.33404,-1.0993,-0.53817,0.2781,-0.89526,-1.5839,-0.43609,3.0329,-0.18104,0.58421,-0.89522,-0.99723,-1.3288,-4.4918,4.0023,2.9309,0.91581,-1.1758,-1.2524,-1.0993,-1.4054,-1.3034,-0.002461,0.63522,3.8237,2.5228,-2.3747,-0.99725,-0.64015,1.477,-0.23202,-1.2268,-0.86973,0.048585,0.023096,1.477,0.48216,-0.76769,-3.497,0.45672,5.2522,-0.99725,-1.5329,-1.3289,-1.4819,-1.0228,0.20163,0.17608,-0.07899,0.53318,0.35465,-0.51259,1.681,-1.0228,4.5124,3.5686,-0.71671,-2.5788,-1.5329,-0.7166,-0.385,-1.2524,0.43115,0.40561,-0.84426,-0.33411,1.2729,0.73727,-1.0993,-0.5126,3.3646,2.1402,-0.92071,-0.86975,-1.4564,-1.3544,-1.2779,0.048573,1.5535,-3.0634,-0.35958,4.3849,-0.79321,2.9564,-1.8135,0.30364,-2.1196,-1.4819,0.73726,-0.15551,-0.4361,0.71177,-0.61465,2.1147,-0.079021,0.3291,0.55872,-0.66564,-0.76766,-1.3033,1.579,-0.25762,0.40559,0.58421,0.4822,-0.33404,-0.28304,-0.41058,-2.1451,-1.2523,3.3646,5.6602,-1.2523,-1.8135,-2.0431,-4.3388,2.2422,0.68622,-0.58916,-0.13004,1.477,-2.9869,-1.2778,1.9107,2.7523,1.4515,2.0126,-1.5074,-1.4819,-1.5584,-2.0941,-0.15548,2.2168,-0.38506,-0.61462,-0.35954,-0.20652,0.073995,-0.4361,-1.0993,1.2729,2.3443,-0.002454,-5.6141,9.7415,-0.92074,-1.686,-1.8136,-2.6042,-1.5584,-1.1502,4.6399,-0.13,-0.66566,-0.71668,0.04858,0.55869,0.40566,0.45668,0.45669,0.2526,0.20156,-0.35959,-0.20653,-0.23203,-2.1451,-2.3492,9.1548,1.9872,2.8544,-1.6095,-0.66576,-1.2524,-2.9613,-2.0941,-1.3799,-0.25751,0.43118,0.91583,0.86481,1.0179,1.1199,0.89031,0.63524,0.35465,0.048555,-0.1045,-0.30858,-0.30858,-0.20655,-0.23205,-0.3086,-0.35957,-0.38508,-0.25753,-0.181,-0.078977,-0.4361,-2.4767,0.7117,0.55863,6.1194,-1.7369,-2.1194,-1.0482,-1.38,-1.9667,3.9002,-3.3695,2.0891,0.38009,-0.6912,-0.92073,-0.35952,-0.25748,0.25267,0.25267,0.53325,0.76278,0.68626,0.53319,0.40564,0.074038,0.023017,-0.13004,-0.35959,-0.4106,-0.23204,-0.13002,-0.18103,-0.30857,-1.1248,-2.0686,-4.1347,12.853,-2.2726,2.5739,-2.2471,-1.9921,-2.1961,0.20163,-1.7115,-0.38506,3.6961,0.60973,-1.0227,-0.66569,1.5534,-0.027998,0.99233,0.50767,-0.28303,-1.5329,-1.0228,2.2932,2.2167,-0.53812,-1.0738,-0.15548,-0.69116,-0.94624,-1.1503,-0.20652,0.50768,1.0433,-1.6095,0.73723,-0.74222,2.9054,0.12509,1.528,-1.0228,-0.13005,-0.92081,3.6196,-1.6349,-1.788,-2.4767,1.273,-2.1451,-1.5584,-0.89525,2.9564,2.8799,0.0485,0.89032,-0.56361,-2.9358,2.6759,3.084,0.66071,-1.89,0.023054,-2.9613,-0.66567,1.8851,0.15057,0.81376,0.45667,-0.58912,-1.3288,0.38018,0.15059,-0.12999,-1.788,2.1657,0.023023,-1.4309,-1.839,4.7675,2.2677,0.048549,-1.7625,-0.84422,-1.9921,-1.6094,0.81376,0.20158,-0.86972,0.17611,0.76279,2.1402,1.2219,-1.0737,0.048567,-0.58914,-0.74223,0.2781,1.3749,-0.86971,-1.941,-2.1451,1.9871,0.78823,1.4005,0.12508,-2.8083,3.135,1.2219,0.074069,-1.1758,-0.71671,-0.53817,-0.38511,-0.99729,-0.61462,2.0127,-0.027969,0.81376,-0.028005,0.074062,0.023059,1.3749,-1.0228,1.1199,-0.25753,-0.30854,-1.0228,0.94134,-0.71668,-0.71667,-1.2013,1.9106,0.66074,-1.1758,0.30364,1.0944,-0.61468,-1.3544,0.2526,-0.20652,0.48219,-0.46161,-1.0993,1.7321,0.81381,3.3136,-2.7827,-0.28304,3.186,-1.3799,-2.0176,-1.3799,1.4515,-1.0483,-0.38506,0.30364,-0.89522,0.048561,0.45667,-0.79314,1.528,1.0178,0.30363,-0.002467,-0.89523,0.48213,-0.002534,-0.0535,-1.0483,0.074038,2.8289,-0.9207,-0.76765,-0.48703,-1.2268,0.71171,-0.33411,-0.23208,0.17609,-1.6094,0.66074,0.58422,0.5332,-0.56363,-0.92076,4.2573,0.73724,-0.99727,-1.2523,-2.7828,0.94138,-1.8389,2.6759,1.6044,-1.8391,-0.58917,-2.4767,2.2932,-1.4309,0.5077,-2.3492,2.3698,-0.18099,-0.66564,-0.51262,-1.0227,0.53323,0.96684,-0.15551,1.5025,-0.35958,-0.8697,-1.5584,-2.4512,4.7674,0.099479,-0.64018,-1.2269,-1.2779,5.4052,-0.15549,-1.4054,-0.84419,-1.0993,-1.3544,0.99234,0.2271,0.40565,3.8747,-1.839,0.074062,0.17607,-1.0483,-1.1758,-0.71666,2.2677,1.2984,-1.3034,0.40566,-0.2065,-0.38506,0.30366,-0.25751,-0.28306,0.71181,-0.15551,-1.1249,0.17602,1.2984,1.63,-1.4564,-0.84421,2.4208,-1.2523,-1.0993,0.96686,1.6045,-2.1961,-2.7063,4.5125,0.4312,-0.53814,2.2166,0.099461,-0.89531,0.22706,0.20161,-0.35953,-0.002443,-0.41058,-1.3288,-0.053446,2.6758,-0.33409,0.78829,0.22711,-0.79321
0.60971,-0.13001,2.2167,-0.38511,-0.61467,-0.58914,-0.35958,-0.38509,-0.053495,0.22711,-0.23204,1.1199,-0.25754,-0.30856,-0.15551,-0.38508,0.27814,0.45669,2.4973,-1.0228,-1.4819,-1.5074,0.96682,0.50769,-0.33406,-0.76769,0.78828,0.45667,-0.33408,-0.38511,-0.41059,-0.30856,0.25262,0.38016,0.60971,0.4822,-0.002443,-0.25753,-0.20652,0.60974,0.32915,-1.2778,-0.027993,-0.053495,-0.07899,-0.002472,-0.15549,0.17614,-0.181,-0.97174,1.5025,-0.43613,1.3494,0.32913,-1.0738,-0.86971,-0.53812,-0.027969,-0.10452,-0.15553,-0.4616,-0.58915,4.4359,-0.48709,-0.078966,-0.46159,-0.84424,-0.56365,-0.18101,-0.43609,-0.30855,0.32912,0.20159,0.25259,0.32912,0.48218,0.04858,-0.86967,-0.25758,2.4207,1.0433,-0.38506,-1.5329,-1.4819,-1.0228,-0.30858,-0.25753,0.074062,0.27809,0.25262,0.22713,0.40564,0.3546,-0.13002,0.40566,0.27815,0.35465,-0.078966,-0.28305,0.048536,-0.5126,-0.94622,0.89024,-1.584,1.1964,0.5332,1.1964,-0.69116,-0.97175,-0.48711,-0.46159,-0.28304,-0.46159,-0.30855,-0.33405,3.5686,-0.07899,-0.23203,0.71175,-0.18102,-0.33407,-0.66567,0.27812,-0.07899,-0.027969,-0.05347,-0.13001,-0.002448,0.38018,-0.002461,-0.25756,-0.46161,-0.4106,0.53319,0.89031,-0.28305,-1.2778,0.022937,-0.38504,0.53329,1.63,-0.079021,-0.53815,-0.61469,-0.61465,-0.28303,0.048561,-0.05347,0.12507,-0.1045,1.7066,-0.35957,-0.0535,0.12507,0.5332,-0.84422,0.81379,0.53321,-0.94627,-0.81871,-0.1045,0.45669,-0.25755,-0.18104,-0.23204,-0.23203,0.48219,0.38016,0.20161,-0.053476,-0.15551,-0.41061,0.12506,0.2016,-0.02795,0.20161,-0.002448,-0.15551,-0.25755,-0.20655,-0.15553,0.27812,0.074051,0.048567,-0.027962,0.074033,-0.4616,-0.35954,1.4004,-0.18109,0.023029,-0.078947,0.25264,-0.89525,-0.89524,-1.0738,2.9309,1.8341,-1.0738,0.6607,-0.84421,-0.69117,-0.15554,-0.10449,-0.10447,0.12507,0.5332,0.2781,0.20158,0.099546,-0.002472,-0.1555,-0.053476,-0.20652,0.43116,-0.53814,0.68626,-0.71668,1.4515,-0.71666,-0.66565,-0.51263,0.89029,-0.30859,-0.23205,0.38017,-0.71666,-0.10447,-0.69118,3.0074,-0.43611,-0.43612,-0.84419,0.43111,0.81378,0.048561,-0.46157,-0.58914,-0.43609,0.48218,0.43115,-0.002461,-0.33408,-0.33405,-0.12998,-0.078996,0.15057,0.22712,0.12509,-0.002467,-0.027987,-0.078984,-0.41057,0.60971,-0.43609,0.17609,-0.30855,-0.46159,-0.05347,0.27813,-0.46159,0.55871,-1.0738,-0.46158,1.0434,0.94131,-0.05347,-0.94627,-0.078996,0.20159,-0.33409,-0.35956,-0.66565,-0.20653,0.32915,0.5842,0.25259,0.45665,-0.69117,0.48219,-0.13001,-0.20651,-0.078966,-0.027938,0.048561,0.50765,-0.2065,-0.25751,-0.38506,-0.18103,0.50771,0.55869,-0.35959,-0.28305,-0.35956,-0.46158,-0.43607,0.48221,1.3749,0.7627,-0.86974,-1.788,0.71176,3.8237,-0.53811,-1.1248,0.22709,-0.86975,-0.7422,-0.61465,-0.41057,0.17608,0.12507,0.17608,0.22711,0.5587,0.1251,0.35464,0.22708,0.023035,-0.15551,-0.002461,-0.027974,-0.0535,-0.20655,0.15056,-0.51261,-0.20653,-0.30856,-0.002436,-0.20657,1.1708,0.40566,-0.58913,0.023065,-0.30853,-0.56362,0.20159,0.17607,-0.027993,-0.28306,-0.079008,-0.027974,0.17607,-0.078972,1.1454,1.4515,-0.69116,-0.66567,-1.0993,-0.58914,-0.38509,2.0127,-0.33406,-0.51264,0.73725,-0.81873,-0.51261,-0.25754,0.099577,-0.23205,1.3239,-0.027974,0.099559,-0.12998,-0.027969,0.43114,-0.05347,-0.13,-0.18102,0.53321,-0.20651,-0.71674,0.58421,1.0178,-0.58911,-0.94624,-0.4106,0.43118,0.96684,-0.1555,0.27809,-0.33408,-0.4106,-0.078996,-0.38505,0.048567,0.25262,-0.13,-0.02798,0.048536,-0.13003,-0.13,2.1147,-0.10454,-1.1503,-0.92074,-0.61466,-0.79321,2.0381,-0.25755,-0.13004,-0.10452,-0.53815,0.91579,0.15056,-0.15549,0.048549,0.09957,0.074062,-0.18102,0.15058,-0.28304,0.48219,0.91582,-0.43609,0.96681,-0.79319,-0.53814,-0.25754,-0.53811,-0.43608,0.048561,0.023029,-0.053476,0.25259,0.22708,0.58422,0.048543,0.099559,-0.15549,-0.10448,-0.05347,0.023059,-0.181,-0.18101,-0.027969,-0.07899,-1.0483,-1.5329,3.8237,1.477,-0.51262,-0.76768,-1.2778,-0.74218,0.048549,-0.35958,-0.18102,1.0178,-0.69119,1.426,-0.46161,-0.20654,0.2271,0.27813,-0.10447,0.048555,0.023041,-0.35958,-0.33407,-0.13003,1.426,1.2219,-0.76768,-0.69118,-0.58913,-0.053488,0.17607,-0.25755,-0.10451,-0.48713,0.15056,0.15057,0.43117,0.20159,0.048555,-0.58911,-0.86971,2.3698,0.35465,0.43118,-0.81871,-0.71667,-0.4871,-0.07899,-0.48708,-0.64014,0.96684,0.43116,-0.25754,0.12507,0.35464,-0.078984,1.477,-0.28306,-0.84422,-0.51262,0.9413,0.099546,-0.053495,-0.41061,-0.13002,-0.33409,-0.74221,0.22708,0.38015,0.32915,0.27814,0.17611,0.17608,-0.10451,-0.15554,-0.23204,-0.15549,0.12507,0.22712,-0.002443,0.023047,-0.20652,-0.25754,-0.18105,-0.027993,0.15056,0.099559,0.12507,-0.10447,-0.1555,-0.23204,1.3494,0.074051,-0.25753,-0.53811,0.15057,-0.46161,-0.18101,0.35465,-0.18102,0.48217,-0.20653,-0.43608,0.35467,-0.18102,-0.20655,0.25263,-0.002454,-0.053476,0.20158,0.09957,0.048555,-0.25754,0.17607,-0.002461,-0.002461,-0.07899,-0.053495,0.074062,-0.02795,0.12507,-0.027993,-0.18102,-0.027962,-0.12998,0.074033,-0.079002,0.15059,-0.1555,-0.002454,0.074057,0.048536,-0.10449,-0.33404,-0.33407,-0.64017,1.0688,1.8341,-0.61461,-0.66566,-0.81873,-0.4106,1.2219,-0.28305,-0.74219,0.2271,0.83928,-0.18101,-0.66567,0.58419,0.68623,-0.35958,-0.15553,-0.25753,-0.23202,-0.25754,-0.23203,0.20159,0.32913,0.15057,0.58422,-0.078984,0.048531,-0.30857,-0.10451,0.099577,-0.027962,-0.027974,0.22708,-0.13002,-0.53812,-0.28303,0.60974,0.17609,-0.23205,-0.28306,-0.20653,-0.15549,-0.10447,-0.46161,0.50768,0.78826,-0.25754,-0.46159,-0.46159,0.43117,-0.12999,-0.18104,0.12507,-0.053458,-0.23203,-0.20655,-0.30858,0.099564,1.63,0.099577,0.99234,-0.81872,-0.89524,-0.56363,-0.13,0.15057,-0.13001,0.40564,0.66073,-1.6605,1.6045,-0.89523,1.9106,0.35465,0.68623,-0.48714,-1.3799,-0.97177,-0.5636,0.048653,-0.86966,1.0178,-0.48717,0.99226,-0.3086,5.4562,-2.0431,-0.25754,5.4306,-1.6095,-2.5532,-2.5787,-4.4408,-1.2524,-0.64013,-3.6501,10.66,4.2572,0.25246,2.7013,-2.8082,-10.256,-5.3078,10.277,-5.8947,4.1042,-2.3748,7.8795,-0.94616,0.40561,-4.4156,4.6396,0.50744,-0.10449,-2.6296,2.421,-2.0175,-2.6297,11.884,1.9617,-5.0274,-3.9306,-0.56363,-0.56369,2.0382,3.5686,-2.094,-0.76761,0.35473,-2.2217,9.4608,-0.46171,-4.3133,-3.7521,-1.3543,-0.48708,-0.7932,-1.3799,3.4156,5.7623,2.5483,-0.99724,0.55866,-0.30862,-6.0478,-2.9359,-2.7063,0.43119,-1.9921,0.15054,2.2677,5.5072,-2.3491,-1.839,-2.6298,3.3136,6.8081,-1.635,1.0944,-3.7521,-6.4815,-1.0228,-0.33413,0.99224,-0.30863,-3.497,-1.5584,10.481,2.2167,-3.6246,6.3489,-4.9765,-1.6095,2.9565,-7.1446,-2.6297,-7.7822,6.6041,8.2621,4.7163,-1.3801,-4.2368,1.732,-1.6349,5.0736,-7.9608,-1.0482,0.73719,-3.0124,-0.99734,-0.13005,1.63,-0.5126,1.0179,-8.0884,14.69,-0.46154,-2.0431,-1.7371,-1.2014,-2.3746,-2.0175,-0.232,3.1094,2.8799,1.0943,-7.5018,2.0891,8.6957,6.1195,-3.3693,-2.8592,-2.8849,-1.6351,-0.28313,-2.0687,0.96675,0.074069,1.9362,-3.752,1.9873,0.60982,-1.89,1.324,-1.9667,0.78816,6.1193,-0.76771,1.1964,-2.6043,-2.5278,3.4921,-2.3237,0.12507,2.7269,0.68627,-2.9358,1.7066,-1.89,0.099491,1.0178,-0.46167,-1.7881,-0.028018,6.6295,-2.8593,-2.5022,-0.94621,-0.74214,2.2933,3.2371,1.1964,-1.2013,-2.4002,-0.66562,-4.1347,1.9617,-0.79329,-0.30868,3.3135,0.48216,-1.788,-0.25751,-0.66564,0.2271,2.1402,-0.23201,-1.2268,0.022974,-2.4257,1.5791,7.0633,-8.4709,4.1297,3.8746,-2.7319,-4.3388,-1.9666,2.1146,-0.15556,-2.3237,-2.4256,7.548,0.32918,-1.3034,-1.0483,-0.89524,-2.1196,1.3239,-0.89526,4.1553,-2.9103,0.91576,-1.1758,3.2115,-0.12996,-3.0633,-5.3336,3.5431,1.0178,1.1454,-7.9099,0.53312,0.32913,-1.3034,-0.23193,0.32912,-0.61465,-0.84419,-1.4309,1.7576,2.7014,-2.6297,1.5535,-1.1249,4.5378,-0.79321,-0.7676,1.5791,-0.97163,-0.15549,-2.7319,-6.201,-0.15558,7.1652,0.32915,-1.6349,1.528,-1.4819,2.6504,-0.56354,-5.5886,3.135,10.226,-1.6604,-1.9666,1.9871,-5.8693,-0.053537,-0.58919,4.4869,-1.4054,-0.89524,-3.3694,0.43118,4.2062,0.38016,-1.5075,2.7779,-1.2524,-0.74221,-0.69115,-1.2523,-1.0992,3.1605,-0.5381,3.2372,-1.4819,-0.002558,-0.46171,-1.9921,8.1601,-2.8849,-0.25762,-0.79326,3.1094,1.2474,-2.7572,-2.9613,2.8289,-1.4309,-1.2268,1.0689,1.7065,0.73725,-1.839,0.91578,1.8851,-3.8541,0.074062,4.3849,-0.61465,-2.5533,-2.1196,5.1756,1.3239,-0.30854,-2.9359,-0.18103,0.40566,-2.4257,-1.2013,-0.71668,1.8596,1.477,-0.92078,-0.86975,-0.56365,1.2729,-0.99728,0.94131,-3.344,5.2266,-0.078972,-0.53811,-1.0228,-3.4205,1.477,5.7878,3.2625,-3.1145,-4.7469,2.8545,-1.2013,-2.5278,1.4514,-1.9156,-1.5329,-0.35957,3.6197,-1.2523,-0.23205,2.1147,2.9564,1.2729,-4.951,0.78824,-1.5329,-1.0228,0.73728,0.0741,-1.1503,-0.2065,-4.5683,3.492,0.63518,1.732,-0.8187,-2.5278,-0.25756,6.1449,0.91584,-0.38505,-2.2471,-0.66565,-1.7625,-0.99732,-1.0228,-2.3492,2.1657,0.78834,1.8341,0.30361,-1.4565,2.5483,0.25262,-0.28311,-1.9921,-2.2472,-1.0738,0.55866,2.3697,-0.99729,-2.9103,-1.0228,-1.1503,1.1454,-0.53818,-3.14,0.35468,4.6145,3.033,-1.8135,-1.737,-0.94623,-0.4616,0.17606,-0.81877,-2.3237,4.3593,2.2677,0.73726,-2.2216,-4.1857,-3.5735,4.5889,-0.53812,-0.15545,-1.0228,-0.38507,-1.8135,0.63526,0.023072,0.099497,1.4259,0.6862,0.43113,0.22708,-0.92073,2.2167,-2.5787,-0.76765,4.5124,2.1146,1.7831,-2.8593,-2.1196,-2.0941,-2.8084,-1.0738,-0.23204,-0.12998,-1.5839,0.55869,5.2777,4.4869,-0.53814,0.048482,-1.3034,-1.9155,-1.7115,-2.2727,-2.3236,1.8086,-1.2524,5.048,1.1964,0.99243,-2.3491,-2.8083,-1.584,6.9355,-0.71673,1.783,-0.15551,-2.0176,-1.9411,-4.8489,4.2318,4.5379,0.81378,-0.94625,-1.839,-1.4564,-3.242,-0.84416,-1.1503,5.6858,-0.92074,0.2271,0.91581,-0.078984,-0.46162,-1.8645,0.89036,0.25258,-0.35961,-0.64018,1.9871,-1.0483,-0.74215,-2.7573,3.2625,0.73728,2.5483,-4.1092,-2.4257,6.553,1.4515,-1.2268,-1.5074,-2.1196,-1.1503,-0.43615,1.5534,-0.84426,1.9106,0.78826,-0.46164,-0.35956,0.66079,-0.25751,-2.4511,-1.8645,1.1454,9.4354,2.5738,0.45667,-3.9817,-3.8796,-2.8849,-1.737,0.17607,0.91581,-0.027969,1.7065,2.3697,1.2984,0.074026,1.2984,-3.446,0.023041,0.30363,2.1912,-0.51265,-1.0228,-4.1092,2.1148,-0.92067,-0.86972,5.2521,-2.6297,-1.839,-2.0941,0.17604,-1.686,3.3645,2.2167,-1.1248,-0.33404,-0.92076,-1.4309,2.7524,4.8695,-3.2929,-3.0124,1.1963,-2.7063,2.3697,2.4973,2.5228,0.81379,-1.6604,-1.3033,-1.5584,-1.7369,-0.86972,0.89024,0.4056,-0.25756,2.3698,-0.25751,0.73725,0.12504,-0.41062,-0.76772,-2.3237,0.074093,-0.76766,-4.0327,11.527,3.4156,-0.20651,-2.8083,-5.3591,1.9871,-0.13005,1.9616,2.5993,-2.9614,0.074093,3.0586,-0.84412,-1.9155,2.7013,-0.28314,-2.1961,0.55869,1.4005,-2.0941,-2.4512,3.5176,0.35466,2.3953,0.38016,0.20161,0.17612,0.09957,-1.3034,-0.027987,2.2932,-0.1555,-1.4819,-1.2269,-1.635,-4.2368,5.8643,3.3646,-0.23197,-0.35954,-1.9411,0.71167,2.5482,1.1454,-0.35953,-1.686,-1.2013,-1.7625,-0.79319,-1.2268,4.0278,0.023029,-0.9973,1.579,0.32917,-0.66563,-2.4767,2.9055,-0.53818,0.91574,3.5941,-0.46165,2.2167,-2.2982,-2.2726,-1.788,-2.1451,0.48219,3.2881,-0.38508,-4.3133,0.86477,1.4005,5.048,-4.0582,1.4005,0.81379,-0.84423,-1.0993,2.0892,1.6045,-2.2217,-1.5075,-0.15554,4.2828,3.1606,-2.043,-0.33404,-1.6095,-1.9411,0.96679,0.63521,2.0127,-1.2269,-1.0994,-1.8135,3.5432,1.222,-3.7775,3.237,0.17598,0.55859,-1.3799,-1.3289,0.074044,-0.97177,1.426,1.2474,0.89034,-2.094,2.6759,-0.053482,-0.53815,4.2318,1.0943,-2.2982,-1.5584,-0.66565,0.20163,-1.2779,-0.48711,-1.2524,-3.0379,4.6909,3.3135,-1.1503,-2.1451,-0.89521,-1.1758,1.9616,-0.81868,-0.30858,-1.635,-4.2113,1.4004,2.9819,1.1709,-2.5277,0.17611,0.53321,-1.0228,-0.18102,0.63524,-1.8135,-0.18101,1.783,0.27809,-1.584,-1.2524,-1.4564,0.099583,0.1506,0.2781,0.55867,-2.0176,2.5229,1.8086,0.94131,-1.8134,1.9362,-0.002454,-0.6657,3.4155,-1.9156,-0.58918,-2.6808,-2.5022,-1.2013,3.1349,-0.20646,0.60977,1.0433,-1.4054,0.8393,0.50767,-1.9411,4.691,0.38016,-1.9665,-1.6859,-2.5277,-0.28305,-1.5584,3.6706,0.099528,0.27808,1.9872,-2.1451,2.4718,-1.7879,1.2219,1.4259,-2.8338,1.5025,1.4004,-1.2269,0.023023,0.099588,-2.2471,-4.8745,3.6451,2.8799,-0.51262,0.68626,-0.41055,-0.99725,-2.3237,1.1964,2.9309,2.3442,-0.35962,1.579,-1.6349,-0.76767,0.43118,-3.446,2.0892,1.5025,1.681,0.30364,-0.89517,-0.4871,-1.0994,0.45661,-0.6402,0.81379,6.7826,1.5025,-0.028018,-3.1144,-2.3237,-1.584,2.1912,-0.35956,-1.3544,-0.64018,-0.79324,3.7726,5.6347,0.8648,-0.64015,-1.6094,-4.0837,2.7779,-0.97175,1.7321,-0.15546,-0.23206,-1.2014,0.86472,-0.33409,0.8393,-0.28302,-1.839,-1.2779,2.0892,7.5223,-1.7115,-1.8645,-1.941,-0.71666,-1.635,-1.5074,-1.3544,0.83926,4.3338,9.665,-3.8285,-0.4106,-1.5075,0.35454,-0.66572,-2.9103,-2.1195,-0.99729,5.4307,0.48218,-2.0431,-1.4819,-1.2779,-0.20653,0.66073,9.2058,-2.1451,-3.2419,-2.5532,2.1657,1.2985,0.99238,-1.7625,-1.3544,-0.002491,-0.46164,1.1964,-0.053525,0.074062,1.1709,0.17614,0.17617,-0.25753,-0.33407,-2.7828,2.4973,2.7779,-0.97176,-5.206,3.1095,1.9106,1.2984,3.7727,-1.1248,1.1199,-2.8849,-1.2013,-4.4408,3.288,2.3188,-2.0686,-3.0124,-2.5022,3.4411,4.4869,3.1095,-2.3747,-2.2471,-1.788,-2.9103,-0.99725,0.60972,-0.13001,0.43115,0.68625,0.4312,-0.23202,0.58418,0.6352,-0.43612,0.86478,-0.53811,-2.2981,1.9362,-1.0738,1.0943,5.8898,-0.07899,-3.0379,-4.0327,-2.4003,-1.6095,-0.86972,-0.79313,0.12518,-2.0685,3.084,4.1298,0.60967,-0.15553,-0.51263,1.6555,-0.66563,2.9309,4.538,-1.941,-2.5532,-2.7828,-2.8594,-3.7011,7.4203,1.0434,1.9106,1.9871,-0.74218,1.4515,-3.7776,-1.2779,2.6248,-1.7115,0.6863,-0.81867,0.35465,0.66077,0.6352,-1.482,-0.3851,0.17607,-0.5126,0.07402,2.0637,-0.38505,0.30365,-1.3288,4.3849,-1.5329,-1.0227,-1.0738,1.2729,-1.686,-0.69121,0.48219,1.579,-2.2982,1.0178,-0.46162,-2.9613,3.6962,-0.46157,0.4566,-3.2165,-0.25754,-0.25754,3.0585,-0.1555,-1.788,0.17609,-2.3747,-1.4309,2.0381,1.7066,-2.4511,-0.66568,2.1912,1.7065,-2.2727,-2.2982,3.033,-0.97178,-0.58911,-1.1758,-0.28308,-1.1503,2.8289,2.9309,-0.74215,-1.3288,1.426,-0.9463,-2.8848,-2.1196,5.3287,0.1762,-0.84415,0.12505,-1.9921,-2.2472,-2.0431,3.288,0.17607,0.023017,0.68626,-0.25751,-2.6297,0.22714,7.0121,3.8491,-1.9411,-2.1197,-2.2472,-3.0889,-0.69112,-1.3034,0.43113,1.0433,-1.9155,2.5993,1.3239,0.4567,-0.94623,-0.92076,0.048531,0.68622,0.76278,-1.7115,-2.5022,1.2219,-0.3341,6.1704,-0.64015,-1.0993,-2.6043,0.63522,-0.61463,0.9924,0.58425,0.074062,-2.0686,1.9872,-1.6094,1.5534,0.38008,1.0178,-0.43612,-0.41057,-1.0227,1.9362,0.30361,-1.2524,-0.15554,2.931,0.83933,-2.9103,1.5024,-1.2524,-0.07899,-1.5585,-0.10454,-0.053513,0.32915,-0.58913,-0.69116,1.4515,3.8237,-2.9104,1.63,-1.7115,-1.89,-3.8796,0.60968,-0.6657,4.0532,-0.46159,-2.0175,0.38016,0.27804,0.07402,0.38014,0.86478,1.1964,0.78824,-0.053513,-1.0483,-2.8338,3.4411,2.2932,-0.58913,-3.1909,-4.2368,3.1349,6.2469,-3.7777,0.73723,-1.635,-0.8442,-4.0326,-1.941,1.4514,0.94128,2.8033,-0.02798,-2.1196,0.86478,2.0126,3.6706,-1.6349,-1.941,3.237,1.4004,-1.1504,-1.1758,-6.7876,2.8034,6.502,-1.0738,-3.1144,0.58424,3.3646,-2.3237,-3.395,4.64,6.451,-0.61468,-2.0686,-2.1707,0.099528,-0.10448,0.40568,-1.0993,1.2729,-2.3492,-0.58905,1.6556,-1.2779,0.68624,3.7471,-0.28308,-2.3238,2.9819,0.048469,0.86478,-1.7369,-2.8082,0.4312,-0.10453,-3.0379,0.22707,-1.3289,1.8086,-0.33404,0.45668,4.946,-0.71671,-1.8135,2.5483,-3.7521,1.2219,-1.0738,-0.97175,-1.3544,-0.97179,-0.86978,1.7065,-0.9718,-2.8338,2.7268,2.3953,3.0075,0.68626,-1.9411,-1.4054,0.22713,0.58424,-1.7625,-1.3034,-0.027962,1.0943,1.7831,-0.5125,2.0892,-0.35973,-0.18106,0.27812,-3.4205,1.477,1.3495,-3.7776,3.7216,-1.4309,3.5431,-2.0431,-1.941,-0.15544,-2.2471,0.32912,1.3494,1.0943,0.71175,0.1506,-0.10448,-3.5736,-0.23204,1.2219,0.94137,-0.84417,-2.2217,1.8086,-0.053495,-4.8745,3.5431,0.073989,-0.92076,-1.0228,-1.0483,-1.5839,1.7577,-2.043,-0.3851,6.859,4.6654,0.32909,-1.3288,-1.2778,-3.242,-2.2727,1.5025,3.2625,0.30363,-1.6094,-1.5584,0.53318,-0.3595,2.0892,0.074038,-0.10447,-2.2727,2.1656,2.9564,2.3442,-0.92078,0.45666,-2.3237,-3.0379,0.02309,-1.4819,0.76277,-0.53815,2.3953,-0.69117,-0.61467,3.6962,-0.28299,3.0074,1.4259,-1.2779,2.4718,-1.0483,-1.8135,-2.1451,-1.2523,-1.0228,3.4665,-0.38513,0.12513,-0.35956,-0.33406,0.17611,0.27814,0.15054,-0.25759,0.58417,-0.232,-2.4512,0.27814,2.3698,-0.38505,-0.23203,-2.7064,3.1094,2.1402,-0.97172,1.5536,-0.20652,-1.7625,-2.0942,-1.0228,0.78827,0.45668,-0.30856,0.71176,-0.94627,-1.3544,4.5889,-0.53811,0.15057,-0.97177,-2.0176,0.71173,6.6295,0.78825,-0.61465,-3.2929,-2.3492,-0.97176,3.39,-1.5329,-2.3747,1.3495,1.1199,3.7982,-0.48711,-3.4206,5.7112,-0.079026,-2.9869,-1.7625,-0.97175,-0.81864,-0.71654,-0.61457,1.1199,2.0381,1.2218,-0.99734,3.0074,-2.5278,0.30364,3.4666,0.86483,-2.6297,-3.8031,-0.92073,1.3494,-0.25751,-0.1045,-0.38509,-0.76769,-0.002479,-0.053513,-0.89524,3.8237,1.2729,0.53317,0.66069,-2.0176,1.3749,-2.2981,-1.2778,6.0685,-1.2013,-2.9869,1.5789,-1.6861,-0.76775,0.58419,-0.92076,-0.94623,-0.76763,-1.0992,2.1147,-0.00251,2.2422,1.1709,0.023047,0.40568,-0.99726,1.4514,-2.043,-3.701,-0.92073,7.7263,3.1604,-2.8084,-2.2982,-2.4512,-1.788,0.60979,-1.5329,-1.5584,2.0637,-0.002448,0.68618,0.50765,0.43113,0.32913,0.71176,-0.078959,0.2526,-2.6043,-2.5022,5.2012,-0.84424,-2.1451,7.9815,-2.1196,-0.81867,-1.1248,-0.84422,-0.4106,-0.97171,-0.99727,-0.079045,-0.028042,0.68621,0.99233,1.0178,-0.30858,0.5842,2.2422,1.2219,-0.25751,-2.9358,-0.94619,3.9003,0.66069,-2.3237,-2.4512,-2.1451,-1.4819,-1.1758,-0.18105,0.38008,-3.8287,7.1142,3.4666,-1.3798,-1.8135,4.2318,-1.5329,-1.5329,-0.81862,1.5791,-0.58919,-1.2524,1.4259,-0.66567,-1.89,-0.43609,1.7321,-2.3237,0.68623,0.07402,1.9361,-0.94627,-1.4054,0.99234,0.17609,-1.4564,0.53317,-0.079021,-0.232,-0.12994,0.53325,0.3292,-2.0175,-1.89,1.1708,5.1246,-0.69118,0.35461,0.048458,-2.2982,1.3494,-1.788,-2.5532,1.426,-0.92074,-0.43606,0.023059,0.25262,0.48219,0.86478,0.023054,0.22712,0.45669,0.27811,1.1964,-0.76769,1.7576,0.81377,-2.3492,-1.941,-0.053439,-2.0941,-0.3341,3.6962,-1.4309,-0.02798,-1.2523,0.074051,0.40565,-0.078923,-0.20649,0.43113,0.099559,0.3291,0.53316,0.71177,-3.0633,-2.9867,5.5328,2.5993,-0.48713,-1.9666,-4.6449,1.3494,-1.8135,-0.79318,-0.94621,-1.4309,-0.43605,-0.69116,1.63,2.5483,-1.6859,2.625,-0.9462,0.55867,0.40559,-1.0483,-0.56368,0.099528,-2.7573,-0.053446,2.9054,-0.51252,-0.46162,-0.92081,0.17604,-0.89527,-1.0738,-1.9921,2.4718,0.83933,0.4057,0.15063,-0.18106,-0.48708,-1.9921,1.0688,-0.51264,0.91584,-0.64013,-1.8135,-0.99735,-3.4716,4.7165,-0.53807,3.0841,-1.2012,-1.9156,-1.8646,-2.8339,3.288,0.94133,-0.64017,0.17611,-0.4871,-0.10451,-0.13001,2.5993,-0.25754,-0.46159,0.15057,-0.25753,-0.33405,-0.10449,-0.13,0.17606,-0.053488,-0.86974,0.45664,1.2729,-1.3799,-0.41051,-0.12995,3.033,0.32923,-1.2524,-1.8391,0.48211,-2.6808,0.86467,0.022974,0.55868,0.99234,1.4005,-0.76771,-1.7114,-0.89518,4.3594,3.1605,-1.0993,-1.3799,-1.2013,-0.053495,-1.3034,-2.4767,-2.8594,6.5275,3.9257,-0.41059,-2.2216,-1.941,-0.61468,-1.3543,6.4256,-3.3184,1.7065,0.15058,-0.23202,-0.53817,-1.0483,-1.2778,1.2985,0.27815,-1.4564,-1.0228,3.7982,-0.9463,0.17608,5.8644,-0.99716,-0.13005,-1.8901,-1.6606,-1.1249,-1.0738,-0.10447,-0.28298,2.2423,1.426,-0.7422,-0.38511,-0.079021,2.1912,0.50772,-1.9411,-2.0431,3.0584,1.6556,-1.4309,-0.84429,0.53314,-1.788,-0.46163,1.3495,-1.9155,2.2932,0.83932,0.2016,-0.61472,1.1708,-2.1706,-3.3185,4.4358,-0.10448,2.5483,-1.0993,-1.7115,-2.3492,-0.35964,0.17603,-0.53813,-0.76769,-1.635,3.033,1.477,1.1453,1.5535,-0.84426,-0.94626,-1.737,0.074057,-0.61463,1.0178,-0.76772,-3.0889,0.8393,-0.002479,-0.027993,-0.23203,-0.33405,0.32917,0.48221,1.2984,-0.46164,1.4515,-0.64018,-0.81878,-1.737,0.94132,-1.0993,1.0689,-0.5891,-0.18094,0.27814,-0.25756,-0.4361,0.074044,-0.76771,1.8851,-0.078977,1.324,-1.686,-1.5839,0.60971,0.48216,0.6352,1.3239,-2.3236,0.048573,0.2526,-1.1758,-1.3034,0.78828,0.4822,0.99235,-1.1758,-1.1759,-1.0483,1.1964,-0.86974,1.426,0.074038,-1.0993,-0.35954,1.8086,-0.64009,-1.5585,-1.788,3.5941,2.1147,-2.9103,-1.9921,4.0277,-1.2524,1.1454,-1.4564,-0.94622,1.2474,-1.9411,-1.4309,1.7576,0.04858,0.25261,-0.71667,-2.1961,2.9819,3.186,0.32912,-1.3033,-0.61465,-1.788,-1.8646,4.997,-0.94625,0.38016,1.4005,-1.5839,0.53318,0.09957,1.7576,-1.5839,-1.6349,1.1199,0.50771,-0.38508,-1.941,-1.2523,4.8951,-1.7625,0.6862,0.32911,1.4005,-1.3544,-2.4002,2.5484,2.9309,-1.7115,0.40562,-0.028023,-1.0228,-0.13002,0.17602,2.0636,-0.13001,-0.56361,-0.7677,-0.41057,0.99237,-2.1706,1.3239,3.3901,0.53318,-1.2013,-0.76769,-1.0228,-1.6605,2.3442,-0.51265,-0.92078,3.5176,-0.66569,2.5228,-0.74218,-1.1248,-1.0993,1.7321,-2.1196,1.8596,-0.61469,2.2422,-3.9562,2.9564,2.0892,-0.41061,-2.9613,0.12509,0.22713,-0.58912,0.25259,0.099552,0.25255,1.6045,-0.1045,-0.38506,-0.97174,-0.7677
