-0.15551,-0.18103,-0.10453,0.1506,0.27812,0.35465,-0.15548,0.50769,-0.46161,-0.43609,-0.48716,0.30361,0.20158,0.38014,0.099588,-0.4871,-0.181,-0.10448,-0.078972,0.32913,0.3036,0.17609,0.12505,0.048525,-0.10448,0.99234,-0.38508,-0.43607,-0.25756,-0.10453,0.048531,-0.35959,0.15056,0.20159,0.73728,0.023054,-0.38507,-0.58911,-0.027987,-0.053488,0.023029,0.15056,0.53319,0.074075,0.023035,0.99234,-0.71667,-0.35959,-0.58913,-0.15553,0.023023,0.40567,0.3036,-0.079026,-0.20652,0.048573,-0.053482,-0.33403,0.048549,0.15056,0.048531,-0.10449,0.17606,0.048555,-0.30851,0.40561,0.074026,-0.078972,-0.027969,0.25262,-1.0738,1.3494,0.63524,-0.53812,-0.58915,-0.61464,-0.002436,-0.4361,-0.25754,-0.027969,0.78824,0.20158,0.15056,0.048549,-0.15549,0.048555,-0.00243,0.023054,0.09957,0.023029,-0.20655,0.099564,-0.15553,0.38014,-0.181,0.15059,0.023054,-0.41057,-0.13001,-0.18101,-0.053525,0.048487,0.81373,0.099583,-0.61462,-0.12995,0.074087,-0.58913,2.5738,-0.41059,-0.86972,0.3546,-0.53814,-0.18105,-0.58913,0.38015,-0.23201,0.048543,0.048561,0.45666,0.50768,0.048536,0.048536,0.074057,-0.05347,-0.1555,0.074069,-0.53812,0.20159,-0.94628,0.58422,0.43115,-0.20655,-0.28306,1.1709,-0.25753,-0.30854,-0.33404,-0.25753,0.02301,0.12505,0.074038,0.09954,0.023035,0.25259,0.074087,-0.07899,-0.10449,-0.15551,-0.002454,-0.23203,0.48216,0.27809,-0.43612,0.43118,-0.027956,-0.41057,-0.35955,-0.20652,-0.027987,0.074038,0.20158,0.20158,-0.02798,0.25261,-0.078972,-0.33406,-0.25751,0.83928,-0.81871,1.2219,0.76273,-0.56365,-0.61465,-0.58915,-0.30853,-0.15551,-0.002461,-0.181,0.12505,0.50769,1.0178,-0.002491,-0.56362,-0.05347,-0.053464,-0.41055,-0.18101,-0.15549,-0.079008,0.12505,0.17607,0.2781,0.1761,-0.002467,0.023041,-0.20651,-0.1555,0.40564,-0.4871,-0.053482,-0.33409,0.074057,0.30364,-0.027944,-0.25753,0.048567,-0.28304,0.32912,0.22708,0.20156,-0.002479,0.099534,0.27811,-0.20651,-0.10448,-0.48708,0.32915,-0.58915,0.30364,0.68622,0.3291,-0.43612,-0.64015,-0.23206,0.89033,-0.5381,0.023023,0.20159,0.15059,-0.002467,0.6352,0.20159,-0.10452,-0.28303,-0.41058,-0.027969,0.30365,-1.0228,0.63523,0.68621,0.81379,-0.89523,-0.58914,-0.61464,-0.25754,-0.23201,0.58418,-0.15549,0.32912,0.58417,-0.15553,-0.053495,-0.002467,-0.12999,0.074069,-0.002448,-0.002467,-0.12999,0.074033,0.12504,-0.58914,0.48215,-0.07899,0.99235,-0.69116,-0.58914,0.17611,0.32912,-0.23205,0.25261,0.53317,-1.0993,0.68623,0.35462,-0.15549,-0.10447,-0.28305,-0.05347,0.023035,0.3036,0.3291,-0.56364,-0.30855,0.20161,-0.078947,-0.28305,0.86479,-0.002454,0.71173,0.96681,-0.35957,-0.53815,-0.81873,-0.74215,-0.53811,0.023035,0.023054,-0.002418,0.53317,0.45664,1.0943,0.17605,-0.25752,-0.86974,-0.30854,-0.2065,2.0637,-0.41059,-0.48712,0.25255,0.30362,-0.64016,0.099588,-0.71663,1.5535,0.66074,-1.3289,-0.53815,-0.4616,-0.20656,0.099546,0.12505,0.2526,0.22712,0.20161,0.2271,0.22712,0.048543,0.048561,0.099546,-0.002472,0.17605,-0.25752,-0.078972,-0.41054,0.022998,-0.38509,0.17605,0.66074,0.83928,-0.51258,-0.51262,-0.51262,-0.28302,0.1761,-0.89529,1.3749,0.55871,0.20159,-0.13002,-0.71667,0.2526,-0.02795,0.30362,-0.66564,0.35465,0.35461,-0.053544,-0.30851,-0.64004,0.68618,-0.20656,0.27808,0.27812,-0.64015,1.2474,-0.30854,-0.84422,-0.94622,0.048536,1.1454,0.40565,-0.51264,-0.35955,-0.38506,-0.18103,0.25263,0.074038,0.099552,0.074033,0.099546,-0.078977,-0.053482,0.099577,-0.053451,0.12507,0.048567,-0.07899,0.12507,-0.25756,-0.002485,0.20158,0.15057,-0.38506,0.63522,0.55873,-0.51262,-0.10449,-0.81869,0.40566,-0.94634,0.48213,0.55869,-0.79316,-0.10447,0.048573,0.25263,0.023059,-0.15549,0.38005,0.53307,-0.002472,-0.12996,-0.28301,0.1761,-0.10446,-0.64015,0.45668,-0.51261,-0.002479,0.048536,0.60968,0.58419,-0.38508,-0.64015,-0.078972,0.35465,-0.4616,-0.25756,0.35465,-0.35953,0.15052,0.55864,-0.23205,0.20164,-0.23199,-0.002461,-0.15551,-0.4871,0.55869,0.9158,-0.10452,-0.13001,-0.35959,-0.1555,-0.33405,0.15061,-0.027969,0.2526,-0.18102,-0.30859,0.55872,-0.25756,-0.46159,-0.30856,0.86481,-0.079008,-0.181,-0.002467,0.15057,0.68617,-0.18107,-0.43602,-0.20652,-0.64008,-0.002479,0.55858,1.0177,-1.5326,-0.89511,0.40552,1.3748,0.78819,-0.15552,-0.30855,-0.30855,-0.46156,-0.13,0.30363,-0.18101,0.099546,-0.20656,0.96685,0.048536,-0.48711,-0.56361,0.30364,-0.30857,0.048531,1.63,-0.76771,-0.15553,-0.51262,0.048543,0.78828,-0.25755,0.1232,0.072198,0.1487,-0.7422,-0.48705,3.0584,-0.99727,0.17602,-0.027974,-0.79315,-0.69111,0.68626,-0.20652,-0.20654,-0.33405,-0.079033,-0.10453,0.074069,0.30363,0.074075,0.099583,0.074062,-0.12999,0.074026,0.125,1.4769,-1.0481,-0.12998,-0.20656,0.12498,-0.20656,-0.53808,-0.02792,0.074142,0.30353,0.20155,-0.0535,-0.35949,-0.18097,0.71172,0.78812,-0.76764,-2.4507,-0.6402,1.885,1.5023,0.48206,-0.48718,-0.3341,0.4312,-0.38506,-0.18097,-0.002461,-0.81873,0.074033,1.6045,-0.92056,0.227,0.048561,-0.64011,0.12511,-0.30852,-0.48708,0.023023,1.0688,1.0688,-0.28313,-0.48719,-1.2012,-0.283,0.15057,0.86469,0.45661,-0.30847,-0.05347,0.023023,0.12503,-0.02795,0.20155,-0.20644,-0.18099,-0.35951,-0.23203,0.27808,0.66066,0.15055,-0.2575,-0.51263,0.22701,-0.23203,0.22718,0.48211,0.20154,-0.56349,-0.25746,-0.69107,0.27798,-0.15549,1.3491,1.5022,-1.0479,-1.558,1.3234,0.81378,0.32907,-0.84411,-0.002595,-0.487,0.55864,-0.23194,-0.63999,-0.18097,-0.078953,0.074051,0.074008,0.55856,-0.30849,-1.0481,0.023029,2.0123,-1.9151,0.53303,0.63503,0.68603,0.58407,0.22702,-0.23198,-0.89504,-1.7621,0.55856,0.3801,-0.97157,1.0689,0.048476,0.30362,0.12499,0.20153,-0.71653,0.12494,0.27791,-0.41044,-1.8641,-0.30847,3.0833,-0.74214,1.8594,1.4766,-0.41066,-1.0991,-0.33384,-0.58894,-0.7676,0.15061,-1.1502,-1.0992,0.55859,2.0126,-0.76773,0.22706,1.3494,-1.6092,0.96645,1.2216,-0.66543,-0.30851,-0.74204,-0.078984,0.30352,-0.10456,1.0688,-1.2775,0.43126,0.78807,0.48197,-1.3797,-0.002588,-0.33411,1.0944,0.17614,-0.15546,0.15062,-0.35956,-0.33404,-0.10452,0.17603,-0.002528,0.022943,-0.7931,-0.38499,0.20152,0.17612,0.5332,0.8903,-0.43609,0.1251,-0.66571,-0.92063,3.2874,-0.74206,-4.1083,1.0943,2.3946,-0.58914,-0.30856,-0.15547,-0.28302,1.1709,1.1711,-2.4,-0.97167,-0.25753,-1.074,-0.33418,2.0636,3.1349,-0.20646,-2.6551,-1.2778,0.099412,1.9871,-1.1502,0.099394,-1.2525,1.4006,4.0531,-1.5582,-0.66607,-0.5891,0.22701,0.5842,-3.0888,-2.5785,0.78853,0.22725,1.3239,0.53277,1.1962,-0.51222,2.5739,-2.5788,2.7778,-0.3342,-3.4972,-0.07921,-0.86983,-0.56378,0.1761,3.1609,-0.28292,-0.74228,0.20167,-0.053573,-1.0737,1.1964,-0.002118,-1.0225,16.449,10.047,-0.79297,-8.7005,-10.818,-3.9818,-9.0068,-7.2468,-4.2877,-3.905,2.1656,3.5431,2.2677,3.0839,5.8643,13.389,4.9208,4.1041,0.43126,-0.053342,-0.35975,-1.1248,-2.3747,-1.8391,-3.9816,-0.23209,-1.0737,-3.65,-5.9458,2.0636,0.073995,0.30361,0.023078,-0.18095,-0.51272,-2.655,3.5432,0.45662,4.869,2.8291,0.73744,3.3901,-1.4309,-1.0738,-4.1602,-1.8136,-2.2982,-2.3748,2.8033,-0.41058,-3.4205,-1.1247,-2.2981,-0.81865,-0.81871,0.22713,2.7521,4.997,2.268,2.7526,4.6905,1.0689,0.83941,0.25256,1.9872,0.30363,-2.3491,-0.64025,-1.3289,-1.482,-1.7626,-0.84423,-2.8593,-2.6042,5.4817,-0.79316,-1.7369,-5.6141,-1.686,0.50762,4.7164,0.48218,2.1657,-2.0176,-0.92075,-1.1248,1.0943,1.3749,-0.71665,1.8087,-0.64016,2.9309,0.17612,-0.30851,-0.18103,-1.3544,0.45654,-0.66575,-0.20649,0.30376,-1.0227,0.81377,1.018,-0.4107,-0.43616,-0.76772,-0.15559,-0.48717,0.40561,0.25264,-1.8645,-0.002461,-0.078928,0.40576,-0.1299,-0.7167,1.4004,1.4259,-0.053317,-0.002479,-1.3544,-1.7881,-1.5075,5.0225,2.0892,-0.56365,-1.6859,-0.64013,0.15064,0.58416,-0.48716,0.78819,-1.2525,-0.84419,-0.283,1.12,-0.23199,-0.86977,1.3494,-1.5837,1.936,1.4005,-0.99729,-0.30873,-0.10435,0.048659,-0.20646,0.50765,-0.89536,0.38003,0.60958,-1.1503,-1.6859,-0.20647,-0.078928,0.023121,0.96689,0.60971,-0.13004,0.17605,-1.2779,1.5025,0.55872,-1.3034,-0.13,2.5738,-0.027969,-1.9921,-1.4564,-2.0686,-0.053464,0.45662,0.86481,0.35468,0.60968,1.63,0.83923,-0.15559,-0.97177,-0.79324,0.30371,1.6047,-1.0227,-1.2269,1.0688,-0.53829,0.32905,-0.028029,0.91583,-1.6094,-2.5276,-2.7315,2.0892,1.1198,2.5993,0.32909,-0.38509,-0.18106,1.0943,-2.8339,1.9616,-0.81868,0.63522,-0.66563,-0.25746,0.58421,1.7065,0.73727,-1.1504,0.17606,-0.99726,-2.1196,-0.30851,-0.13,-0.41064,0.53317,0.45666,-0.10432,0.89018,-0.053598,0.58421,-0.92071,-0.283,1.1456,-0.43626,2.0381,-0.89521,-0.92066,-0.71668,-1.8645,-2.0941,-0.64023,5.1756,-0.078977,-0.15549,1.1454,1.0688,-1.8135,-2.0176,0.91581,-1.4819,2.4717,-0.23202,-1.4564,-0.15545,0.45664,1.375,-1.1503,-3.0124,1.8341,-0.84425,-1.8645,2.9565,1.0944,-2.1451,0.38016,0.40558,1.2983,-0.58922,-0.1556,0.30368,-1.0227,-0.41043,1.0177,-0.30863,-0.28292,-0.35962,1.375,0.09957,-2.0941,0.12514,-0.28299,0.7372,-0.18102,-1.7626,1.834,-0.51267,0.07402,2.9819,-0.078923,-1.3544,-1.3034,-1.2013,2.9819,0.99234,-1.4054,-2.0176,-0.20655,1.1709,-1.4054,1.7066,1.1199,-0.89525,-1.4054,0.17602,0.76278,-0.61464,-0.18111,-0.35956,0.20165,0.73736,-0.10447,1.1964,-0.86978,2.8288,-0.4617,0.91581,-1.2778,-1.4054,-0.23207,-1.3034,-0.84417,0.76275,0.023084,1.0944,1.8596,0.15064,-0.64012,0.02295,-0.46167,-0.79327,-1.0227,-1.2778,-1.737,3.3645,0.43116,0.45669,-1.5584,-0.97176,0.074093,2.7014,3.7471,-2.1707,-1.3544,-0.58913,-1.6094,-0.61459,-0.53807,1.477,0.45656,1.0688,-0.38507,0.023029,-0.38513,-0.002345,-1.2013,1.3239,0.5587,-0.69116,-1.4054,0.94128,3.2115,-1.788,-0.99726,-1.2013,0.40571,-0.6147,0.20164,2.1145,-1.1249,-1.2268,-0.92065,-0.23204,-1.3798,1.1454,3.1095,-0.053482,-1.0738,0.83931,0.25265,-1.0737,-1.788,-0.48714,1.7066,0.12499,0.83928,1.8086,-0.078984,-1.6605,-1.0483,-0.48703,-0.38513,1.8086,-0.23202,-0.53824,0.27808,-0.3341,0.50768,-0.89516,-1.3799,-0.9972,2.9054,1.528,0.22713,1.3495,-1.8136,-1.38,-0.99737,-1.4309,-0.79306,2.3953,1.5024,-0.2066,-0.28302,-0.33407,2.0382,-0.81873,-0.053482,-1.7115,-0.30857,2.0127,-1.0483,0.30371,-0.81873,-0.81868,0.9413,-0.20653,1.7831,-2.7063,0.76276,0.94125,2.3442,0.63522,-0.99724,-1.6094,-0.94626,-0.81877,-0.84422,0.45654,0.76268,0.2271,1.5536,-0.078959,-0.89521,0.074142,0.48228,-0.078843,-1.5328,-1.4309,1.5789,0.50752,-1.1249,0.71176,-0.89526,1.2473,0.1251,0.60976,-1.1502,-0.69107,-0.28298,0.099595,-0.15554,-0.89528,2.0891,0.76274,-0.10449,-0.8442,-0.76773,0.45668,0.15057,-0.002443,-1.1503,-0.30857,0.17609,-0.33403,-0.48716,2.8544,-0.43611,-0.66575,-0.81869,0.78829,-1.1503,1.2473,-0.41058,-0.35942,-0.35946,-0.76763,1.2474,0.27803,-0.20663,-1.1249,-0.30856,-0.28309,1.7576,-1.0993,-0.76763,-0.4871,0.20159,-0.10447,0.35463,0.099534,0.45667,0.04861,-0.35954,0.15062,0.023023,-0.99734,-0.7167,1.63,-2.1196,2.8034,0.73723,-1.0227,-0.20652,-0.002461,0.63518,-1.4309,0.81365,1.1709,-0.23204,-1.5329,-0.18092,1.273,0.99236,0.25267,-1.9921,-1.2013,-0.25754,-0.053555,1.4004,-0.46164,0.73728,0.55873,0.50769,-0.6146,-0.30851,-0.002418,0.38014,-0.028042,-0.74223,-0.9463,2.1401,0.91578,0.91588,-2.5276,-0.92063,-1.6348,-0.56372,-0.25768,0.43107,0.50761,0.83929,-0.053458,0.89036,0.43124,2.5738,-0.3086,-1.2014,-0.23202,1.528,-1.3033,-1.7624,-0.69113,1.4514,-0.38518,0.20156,-0.46167,0.66062,0.35462,0.048536,0.38018,-0.8442,-1.5329,1.7576,0.30369,0.63529,-1.9155,-1.482,0.73718,-0.027993,0.3291,1.3495,-0.41057,-0.46161,0.35461,-0.027993,0.58418,0.78826,0.2526,-1.2013,-0.12998,2.4973,-0.51264,-0.41058,-1.2779,-0.35957,-0.53815,0.27811,-0.35953,1.1709,-0.6912,-0.28309,0.43121,0.12507,0.71174,-0.56361,0.73723,-0.53814,0.25269,-0.38517,1.5535,-2.0176,-0.28302,1.7066,0.58422,-1.3289,-1.1248,2.7013,0.99234,-1.4564,-0.99729,-0.69115,0.30364,-1.0483,0.43115,-0.51264,1.579,0.71168,1.6555,-0.28305,-0.18104,-0.76769,-0.48708,-0.1555,3.0331,-1.4818,-1.2267,-0.48718,0.099436,-1.1504,0.63518,1.6301,-1.3289,0.99229,-0.76767,0.35472,-0.8186,-0.6146,0.58418,-0.30857,0.91581,0.17608,-0.56367,-1.3288,0.15057,0.074038,0.96684,-1.5585,0.81376,1.2984,0.50769,-0.51259,-0.15553,-1.635,0.58425,-0.002448,-0.30855,2.0381,0.25265,-0.4106,-1.788,-0.64015,1.2729,-0.53812,-0.18103,0.2781,-0.25753,1.1454,-0.053495,-0.53812,-0.56358,0.38014,1.9361,-1.1758,0.27805,0.96681,0.22708,-0.18108,-1.5584,-0.12996,-0.05347,-0.43608,-0.15547,-0.10446,-0.02798,0.40566,0.27808,-0.00251,0.3291,1.1454,0.27813,-0.25755,-0.23203,-0.28303,-0.46162,0.5332,-0.64015,-0.79321,-0.56367,1.2729,-0.12994,-0.46154,-0.436,0.22712,-0.5382,0.073922,0.55863,-0.43618,-0.078947,-0.41051,0.023054,-0.35946,-0.74206,0.35461,0.15051,2.1146,1.0433,0.15061,-0.15556,-0.5636,-0.89521,-1.0483,-0.15553,0.20159,0.023084,-0.20651,2.3698,-0.61465,-0.18108,0.15057,0.023041,-0.61462,-0.61464,0.12509,0.48218,1.2474,0.25256,-0.43614,0.099534,-0.97174,0.68628,-0.48706,1.5535,-0.86972,-0.64016,0.73726,-0.86965,-0.12998,-0.51265,0.15052,-0.30862,-0.28307,1.579,2.2422,-0.89523,-0.76771,-1.0993,-0.28309,0.91583,-0.74217,1.1455,0.32925,-1.3034,0.60969,0.12497,-0.20656,0.30356,0.023035,-0.028018,-0.76769,0.40568,0.22712,-0.92074,0.89038,0.1251,-1.2524,0.86478,1.4514,1.0944,-1.1248,-1.2778,-0.97175,0.023103,0.3036,0.12504,0.53314,0.17606,-0.078996,0.68627,0.5332,-0.69122,0.023047,-0.66562,-0.28298,-0.23197,1.0178,0.17601,0.099588,-0.10452,0.71175,-0.56363,0.15055,-0.86972,-1.2778,1.5025,1.1453,0.32907,0.4567,-1.3034,-1.635,0.78831,-0.76766,0.32913,0.60974,-0.99727,-0.053513,0.91581,0.45664,-0.1555,-0.9973,0.074093,-0.002461,1.4005,0.35463,-0.232,-0.15552,0.27812,-0.35957,0.023035,-0.51266,0.81373,-0.56362,-0.8187,0.099564,-0.18103,-0.13,0.22715,0.07416,0.68623,1.7575,0.63522,-0.64013,-0.99729,-0.51268,-1.2013,-0.079008,-0.18102,0.074087,0.55869,-0.35954,-0.6146,0.22712,0.48218,2.2422,0.73726,-0.86974,-1.4564,0.40563,2.1147,-0.86974,-1.737,0.25263,-0.94623,-0.43611,0.20156,0.30363,0.25261,0.2016,0.96689,-0.41061,-0.18104,0.20155,0.53325,0.12504,-0.33404,1.0943,-0.1045,-0.43609,-0.64013,-0.53815,0.35458,0.048543,0.27812,0.099601,-0.56367,1.0434,0.048543,0.71177,-1.1758,-0.61464,-0.12998,0.60969,1.3239,0.074044,-1.5585,-0.7677,1.7576,-1.0993,0.38014,0.83928,0.2526,-0.99726,-0.30856,-0.86971,1.0944,-0.53815,0.35467,0.43111,0.15054,-0.028023,0.68617,-1.3799,-0.10447,0.81378,-0.69105,0.17611,0.22711,-0.078984,0.40561,0.32913,-0.30866,0.27808,0.22707,-0.25751,-0.30852,0.074136,-0.33404,0.63528,-0.5636,0.81384,0.7372,-1.3034,-0.28308,0.43113,-0.56362,0.91579,1.2219,-1.6094,-0.002461,0.048525,0.48222,-0.078959,-1.0483,0.15061,1.0179,0.66072,-0.84426,0.48217,-1.5074,0.023065,0.60967,0.89031,-0.12997,-0.9207,0.71176,-0.15558,-0.51262,-0.69116,0.94137,-0.53815,0.40566,0.63519,0.38011,-1.2268,1.2474,-0.99721,-1.0227,0.43115,-0.23207,-0.4106,0.09954,-0.053476,-0.61463,1.0434,0.45669,0.099552,-0.18106,-0.38514,-0.5381,1.0179,0.15062,-1.2013,0.43117,0.94131,-0.53815,-0.13002,1.5535,-0.64013,-0.86972,-0.74215,-0.38511,-0.99724,-0.79324,-0.1045,0.78829,1.4259,0.50765,0.66074,0.25263,-0.33406,-0.97177,-0.89524,0.99233,0.074062,-1.0482,0.66078,0.048598,-0.69122,-0.15558,-0.053519,-1.6605,1.1709,0.22713,-0.15547,0.27812,-0.23202,0.86479,-0.10449,-0.46164,-0.12994,-0.079002,-0.69119,1.9361,-0.10448,-0.33408,-0.74216,-0.33409,0.074038,1.4515,-0.64017,0.1251,0.6862,-0.53813,-0.61464,-0.078959,0.048598,-0.053513,-0.3596,-0.15553,-0.23205,0.96683,-0.30854,1.8596,-0.05347,-1.9155,-0.56361,-0.1045,-0.079112,1.1964,0.20161,0.30367,-0.18095,-0.58915,-0.69122,0.73719,0.35466,-0.027998,-0.1555,0.40568,-0.25753,-0.18098,-0.76764,0.07413,-0.33404,1.5535,0.38011,0.76272,-0.9718,-0.86977,-0.43611,-0.74219,-0.027956,-0.30852,1.7831,-0.25754,-0.5126,0.71177,0.94129,0.048536,-0.71665,-0.74219,0.074044,-0.10448,-0.74221,0.40563,0.91579,0.6097,-0.58918,-0.69115,-0.97176,0.8393,-0.23197,0.048573,-1.3288,2.4463,-0.64015,-0.20658,0.15053,-0.10456,0.7117,-0.41058,-0.61463,-1.0993,0.074111,0.55876,0.04858,-0.1555,0.60969,1.1453,0.023035,-0.05347,-0.53807,-0.25761,0.073995,-0.027998,-0.53809,-1.1248,0.22707,1.4514,-0.46161,1.9872,-1.3543,-0.48708,-0.13002,-0.4106,-0.33413,-0.41062,-0.13008,1.5535,0.99234,0.7628,-0.66561,-1.0227,-0.86967,-0.15549,-0.35959,-0.23201,0.91575,0.15052,-0.28309,0.63526,0.89036,0.30363,-0.56365,-0.69119,-0.51265,-0.46159,-0.23202,-0.15554,0.50767,-0.053451,0.58417,2.2423,-0.86971,-0.46156,0.12505,-1.6604,0.86479,-0.41058,0.32909,0.45669,-0.053495,-0.5126,1.2219,-0.84424,0.17606,0.22706,-0.25754,-0.10449,-0.027974,0.30365,-0.41059,0.20161,-0.002423,-0.053458,-0.92072,-0.3086,0.09957,0.32909,0.3291,1.8595,-0.20653,-0.12997,-0.33404,-1.0992,-0.8187,0.8648,-0.66573,0.73724,-0.07907,0.45657,0.43116,-0.51254,-0.15542,0.45673,0.27813,-0.25754,0.48211,-0.71677,-0.13002,-0.30854,-0.51257,-0.33405,0.66075,0.73721,-0.86975,0.22705,0.96684,-0.61464,0.38018,-0.66561,-0.027956,-0.23205,-0.002467,1.2474,1.0944,-0.43611,-0.15553,-0.4616,-0.12999,-1.3544,0.17608,-0.079014,0.78826,0.048525,-0.10448,0.074093,0.27808,0.30361,-0.28305,-0.078996,1.3495,-0.64011,-0.12994,-0.97169,-0.46167,0.91571,0.68616,0.073989,-0.28305,-0.41061,-0.86967,-0.84418,0.40565,-0.12997,1.477,-0.027944,0.22713,-0.46162,-0.35959,0.30361,-0.58915,0.66072,0.78829,-1.533,-0.48714,2.0636,0.35464,0.15058,-0.58914,-0.58911,-0.76767,0.15062,0.27812,-0.078917,-1.0483,1.7575,1.1708,-0.38511,-1.0993,0.30367,-0.15547,-0.76763,-0.20656,1.1709,-0.51266,0.17607,0.63524,-0.76774,2.3697,-0.23198,-1.1758,-0.58907,-1.1502,-1.2268,0.074069,0.3546,1.5534,0.55862,0.099546,-0.38506,1.2219,-0.20654,0.48222,-0.58911,-1.5329,1.2219,0.63524,0.99231,-0.94629,-0.41061,0.55869,-0.51263,-0.25756,-0.027944,-1.1758,0.40569,-0.15549,0.048531,0.15056,0.53315,0.17604,-0.15552,0.94133,1.2219,-0.89516,0.48221,-0.7167,-1.2779,0.12507,-0.76771,0.38014,-0.35953,0.048561,0.66078,0.71171,0.074033,-0.58918,-0.25756,-0.86975,-0.81872,0.58424,0.68626,0.074069,0.55867,-0.002448,0.89027,-0.92075,0.27815,0.5842,1.1453,-1.4819,-0.078984,-0.43607,-0.71666,-0.84419,0.074026,0.12507,0.58418,1.1199,0.43117,-0.76769,-1.3034,0.91585,1.2219,-0.94621,-0.81869,-0.56364,-0.23208,0.22707,1.2219,1.1709,-0.053476,-0.181,-0.66569,-0.078972,0.20161,-0.48711,-0.3851,-0.15549,0.78831,-0.30856,-0.28309,-0.51263,1.0178,0.023023,-0.25754,0.074013,-0.43609,-0.027993,-0.58908,-0.23201,2.1912,1.426,-1.3799,-0.053476,-0.43612,-0.25758,0.32914,-1.6095,0.71175,1.1964,1.63,-0.30855,-0.53808,-1.1503,-0.84425,-0.7932,0.35464,-0.7422,-0.38511,0.71175,1.4005,0.76277,0.71177,-0.48708,-0.30855,-0.58918,-1.4054,0.76274,-0.13002,0.71173,2.2167,-1.1248,-0.71668,-0.15552,-0.38509,-0.79321,0.40568,-0.002436,0.5077,-0.053476,-0.10449,0.55871,-0.53816,-0.18106,0.55869,-0.43614,-0.46165,0.63523,0.45669,0.20159,-0.71668,0.27815,-0.20647,-0.69114,1.8597,-0.86975,-0.079075,0.02298,1.4259,0.5332,-1.0737,-1.0737,-0.64014,0.89027,-0.028023,0.55866,-1.2269,0.89027,-0.28302,0.45673,-0.38503,-0.48709,0.099559,0.91578,0.0485,0.22709,-0.46159,0.023041,-0.76764,-0.5636,-0.23207,0.40566,1.4004,-0.053525,0.30361,-0.46164,-0.89526,-0.86971,0.71179,-0.25749,-0.71668,0.35467,2.2422,1.3494,-0.13003,-1.2269,-0.10452,-1.4054,-0.002461,0.68623,-0.027969,-0.66562,-0.002418,1.0689,-0.027993,-0.66572,-0.002491,0.2526,-0.92076,0.89034,0.20159,0.30363,-0.46159,-0.33407,0.38014,-0.74216,0.07402,0.78829,-0.25757,-0.28305,-0.20653,0.73725,-0.43606,1.681,0.38016,-1.0738,-0.61465,-0.64014,0.35462,-1.2013,-0.079002,-0.053458,0.78824,0.8393,0.023017,0.45667,0.17607,-1.0227,-0.5636,-0.86968,0.81379,0.40569,-0.18106,1.0178,-0.92078,0.50774,-0.002565,0.4566,0.17609,-0.79316,-0.66561,-0.35953,0.20159,0.99235,0.94131,-0.30856,-1.2269,-0.64018,0.023047,-0.18101,0.30366,0.15061,-0.002491,0.94131,0.12502,0.023029,0.12507,0.1506,-0.33407,-0.46156,-0.58915,1.2474,0.94128,0.30363,-0.64018,-0.69113,-0.33401,0.099577,-0.38515,-0.89526,-1.0483,1.2219,0.71172,0.32923,-0.30852,-0.23202,0.43112,1.426,-1.6605,-0.4871,1.1454,0.023059,0.60971,0.38016,-0.46161,-0.9718,-1.0483,-0.33409,-0.61465,1.477,-0.35957,1.375,1.2474,-1.3034,-0.53818,-0.20652,1.0944,-0.9207,-0.58919,0.32914,0.78825,-0.30856,0.2271,-0.92074,0.91581,1.1199,-0.53811,-0.89524,-0.33409,0.30362,0.12509,1.375,-0.4106,-0.56363,-0.51265,-0.53815,0.78826,-0.38504,-0.15546,-1.4309,0.68618,0.50766,-0.43615,1.3239,0.76273,-0.41057,-0.86972,0.71177,0.20162,-0.76766,-1.2013,0.71175,1.7576,0.27813,0.27808,-2.1196,0.25262,-1.0483,0.91581,-1.6094,-0.51261,0.78827,0.25262,0.048525,0.023029,0.099559,-0.23204,0.2526,0.89031,0.27815,0.50771,-0.84422,-0.18106,0.15058,-0.053513,-0.002461,-0.23203,-0.002443,0.048573,-0.53811,0.43117,-0.81871,0.023017,1.3749,0.91577,-0.84422,-0.13,0.53323,-0.89522,-0.99726,-0.02798,1.2984,0.15057,-0.99725,-0.053495,-0.71671,-0.69119,0.89027,0.91584,0.5587,1.2985,-0.027974,-0.89522,-1.1503,0.25259,0.58421,0.12504,-0.74216,-0.35954,0.68622,-0.61469,0.32912,-0.28307,0.81377,0.074051,-0.3851,-0.027962,0.25265,0.68624,-0.71666,-0.35958,0.074051,0.22715,0.099552,-0.05347,-0.3851,-0.25755,0.68624,0.40566,-0.51262,0.12507,-1.9666,0.99235,0.25261,0.43116,0.023023,-0.10449,0.91581,-2.2471,0.68627,-0.5381,-0.20649,0.099564,0.48218,1.0943,0.43112,0.45662,-0.28305,-0.53814,-0.97176,1.6811,0.32919,-1.0993,0.17608,-0.84423,-0.002521,-0.002436,-0.64015,-0.38506,-0.35954,1.477,-0.53815,1.1964,0.91582,0.17606,-1.1503,-0.81871,0.023029,0.60973,-0.10447,-0.12997,-0.13002,-0.10449,0.32913,0.27806
-0.30855,0.099546,-0.30857,0.94131,0.30361,-0.89521,-0.33405,1.7321,-0.81872,-0.3851,0.45667,0.30362,0.048531,-0.69118,-0.30856,-0.1045,0.91582,0.12507,-0.027969,-0.10448,0.048543,-0.15555,-0.25753,-0.053495,0.074062,-0.30854,0.32913,-0.002454,0.50766,0.94133,-0.002497,-0.4871,-0.56367,0.55871,-0.69119,0.60976,-0.38508,0.074051,-0.33407,-0.23203,0.60973,-0.002467,-0.078984,-0.20656,0.45666,0.099559,-0.10449,-0.027938,-0.027969,0.38016,-0.23203,-0.33406,0.17607,-0.15553,-0.027993,0.58421,-0.15551,-0.078972,0.048573,-0.33405,0.53317,0.023029,0.3036,-0.74219,-0.38507,0.89031,-0.69114,-0.02798,-0.94622,2.0126,0.17608,-0.28308,0.35465,-0.51265,-0.56364,-0.92075,0.32915,0.43123,-0.20655,-0.4106,0.22706,0.45667,1.1454,-0.10449,-0.48711,-0.25754,-0.078972,-0.002472,-0.12999,-0.10447,0.12503,0.25252,0.15054,0.099608,-0.181,-0.053439,-0.25753,0.27811,-0.25751,-0.07899,-0.1045,-0.20654,0.15055,-0.13001,0.60971,-0.078996,-0.33406,-0.38509,-0.48709,0.5587,0.55871,0.22708,0.53318,0.048536,-0.43612,-0.41057,-0.46159,-0.38508,-0.30855,-0.002454,1.2474,-0.18102,-0.053488,-0.053488,-0.079002,-0.58913,0.76275,-0.10448,0.25263,1.1199,-0.28306,-0.66565,-0.4106,0.048531,0.40566,-0.13001,-0.25753,-0.10449,0.074062,-0.1555,-0.002467,-0.053464,0.60969,-0.13,0.17607,-0.181,-0.07899,-0.027969,-0.51261,0.15057,0.55871,-0.76771,0.40566,1.9361,0.048543,-1.0483,0.2526,-0.51258,-0.69118,-0.35956,0.048536,0.074057,0.074057,0.32912,0.1251,0.17608,0.20159,0.09957,-0.28294,0.27806,0.50757,-0.002454,-0.20651,-0.69113,-0.12999,0.53321,-0.15549,-0.64015,-0.61463,-0.38509,0.50764,0.40565,0.20156,-0.33407,-0.079014,0.25259,1.1199,-0.10449,-0.69114,-0.33407,-0.35957,0.35462,0.45666,-0.13,-0.41059,-0.38506,0.40566,0.40568,0.43114,-0.28303,-0.23204,-0.053488,-0.07899,-0.13004,0.4822,-0.41059,-0.13002,0.099583,0.38015,-0.002454,-0.33407,-0.053488,0.30364,0.02301,-0.61467,-0.43612,-0.078898,1.4514,-0.51265,0.35464,0.27812,-0.02795,-1.2523,-0.56364,0.73729,-0.18102,-0.2065,-0.13001,0.2271,-0.1045,0.38013,0.68622,0.35461,-0.74219,-0.41058,1.1964,0.43117,-0.58914,-0.5126,-0.25753,-0.35957,-0.027998,-0.078977,0.099546,-0.20648,0.074038,0.048543,-0.079014,0.81379,-0.33403,0.20158,-0.41058,0.17606,0.023035,-0.1555,0.074038,-0.18099,-0.10452,0.25259,-0.20656,-0.053513,0.86485,1.375,-0.4361,-1.4309,-0.56363,-0.33405,-0.23204,-0.30856,-0.30856,4.0788,0.22708,-0.86977,-0.76769,-0.4106,0.09957,0.023054,-0.35956,-0.66567,-0.18101,0.15059,0.35463,-0.002479,0.50766,0.48216,0.17608,-0.28302,-0.23204,-0.33404,0.73727,0.023041,-0.002479,0.40561,-0.97174,-0.38511,-0.028023,-0.002497,-0.10445,-0.15548,-0.25748,-0.027962,0.40558,0.099564,0.2271,-0.02795,0.12507,0.20159,-0.20651,-0.07899,-0.48706,-0.51263,0.12508,0.58419,0.45665,-0.48713,0.71176,-0.43609,-0.4616,-0.81868,0.074038,0.81379,-0.28306,-0.078996,0.25262,0.12507,-0.053476,-0.30854,0.66075,-0.027969,-0.30855,0.048536,-0.07899,-0.079033,-0.027987,-0.078984,-0.053495,0.55871,-0.74215,0.94131,0.30364,-0.41057,-0.13004,-0.20655,-0.15553,-0.02798,0.22713,0.25254,-0.053476,-0.20652,-0.10445,0.20161,0.17601,0.60971,-0.12998,-0.41057,0.66077,-0.02798,-1.2013,-0.18104,0.048536,-0.20651,0.96679,-0.23207,0.25261,-0.078996,-0.15551,0.17611,0.45669,0.78825,-0.61462,-0.51261,0.048536,-0.41057,-0.1045,-0.053476,-0.027956,-0.053476,-0.33406,-0.25752,0.68624,0.099559,-0.35957,0.27811,0.32911,-0.18101,0.074062,0.25261,-0.027962,-0.4106,-0.86962,0.073946,0.20156,0.58419,-0.25753,-0.2575,-0.1555,-0.56362,-0.078972,-0.30856,0.048531,2.1402,0.2271,-0.4361,-0.71668,0.023029,-0.53813,-0.10449,-0.46161,0.66075,0.35467,0.12505,-0.38509,-0.4871,-0.053513,0.43115,0.94132,-0.53812,-0.64013,-0.15552,-0.28303,0.048536,-0.30857,1.0433,-0.15551,-0.41058,0.22709,0.2016,0.25261,0.15059,-0.25754,-0.053482,-0.6146,0.30352,0.1506,0.25259,-0.10449,-0.30855,-0.25754,-0.15548,-0.181,-0.64014,0.68624,0.58414,0.43111,0.76276,0.53321,-0.30854,-1.3033,-0.74217,-0.41061,0.73722,0.074026,-0.4361,-0.078996,1.0434,0.20163,-0.33409,0.074069,0.12509,-0.33405,-0.25753,-0.1555,0.048536,-0.027974,-0.23208,-0.053476,0.35456,0.2526,-0.002436,-0.30854,0.35467,0.30363,-0.56365,-0.12999,-0.25755,-0.13002,-0.10448,0.15059,0.048567,-0.30855,0.53306,-0.33411,1.0689,1.7576,0.30368,-1.0483,-1.2778,-0.92074,-0.76766,0.099497,1.1198,-0.2575,-0.35949,0.86474,1.0688,0.022998,-0.43609,0.1232,0.072198,0.1742,0.023059,-0.48713,-0.20653,-0.35959,-0.15552,0.25263,0.12508,0.27813,-0.002454,-0.027998,-0.15551,0.023059,0.30357,0.68622,-0.053525,-0.20652,-0.76757,-0.18109,-0.3851,1.2729,1.273,-0.69113,-0.7167,-0.53811,0.023041,-0.15555,-0.079039,-0.15551,-0.58908,1.63,-0.18101,-0.38508,-0.23209,0.074038,-0.15553,0.53322,0.63526,-0.5381,-0.53812,-0.33404,-0.10452,0.53315,-0.38503,-0.61463,0.63517,0.25264,-0.15561,-0.10448,-0.69101,1.0944,-0.51264,0.073953,0.76268,0.099497,-0.74215,-0.35956,-0.23197,-0.20648,0.023059,-0.28301,-0.10449,0.40566,1.6045,0.38008,0.32913,-0.99726,-0.74218,-0.71665,0.5332,-0.30855,0.048555,-0.079002,-0.20653,0.32913,0.074062,0.048536,-0.002423,-0.078972,0.30355,0.12507,-0.56351,0.66056,0.12505,-0.18098,-0.12998,-0.30852,0.12502,0.023059,-0.33387,0.15052,0.32905,0.12501,-0.053537,-0.15556,0.099559,-0.23205,0.023047,-0.10444,-1.6094,1.681,0.17607,1.3749,-0.25751,-0.56362,-0.48708,-0.71658,0.048512,0.023017,0.20155,0.12506,-0.053464,0.12507,0.074062,-0.20656,-0.027962,0.68624,0.45673,-0.25755,0.15047,0.12498,-0.97158,-0.43604,0.25254,0.53303,-0.56351,-1.4561,0.76272,0.6606,0.30356,0.50764,-0.61466,0.5332,1.2219,-0.99727,-0.38506,-0.30855,-0.078959,-0.97175,-0.027944,0.68627,-0.23204,-0.053476,0.32912,0.2526,-0.10451,-0.13001,0.20161,-0.078935,0.27802,0.09954,-0.30851,-0.027987,0.023023,0.022998,-0.002448,-0.078972,0.1251,-0.56361,0.023059,0.17609,0.22712,0.86478,-0.28308,-0.3851,-0.28305,-0.13002,0.12501,-0.28305,-0.66537,0.074026,0.27805,1.2984,0.0485,-0.002485,-0.33409,-0.51258,-0.6656,0.99226,0.074038,-0.89504,-0.28306,1.7319,-0.71654,0.07394,0.073953,-0.33402,-0.3595,0.048585,0.12509,-0.15551,0.048549,-0.33409,0.074038,0.35464,0.2781,0.17609,-0.20655,-0.10445,-0.20656,-0.027974,-0.002485,0.023023,-0.053482,-0.10447,-0.0535,-0.027969,0.09957,-0.05347,0.15064,0.17607,0.048506,0.20153,-0.002516,0.89032,0.17611,0.5077,-1.2523,-0.89521,0.22712,-0.46159,0.099546,-0.23203,0.20146,0.074026,-1.2011,0.074038,0.55861,1.5789,-0.25756,0.30361,0.71175,0.45669,0.023029,-0.41053,-0.84422,-1.7114,0.074075,1.4004,-0.12998,1.0944,-1.1248,0.12501,2.2422,-0.43612,-0.33409,-1.3289,-0.89526,-0.48709,-2.8338,0.20159,5.8898,1.9363,-0.97188,-1.1504,-1.3033,-0.89513,-0.3342,-0.00257,-2.4768,1.4515,-2.1447,7.65,-0.6656,-3.4462,-2.6044,0.35455,-1.2524,6.7571,1.426,-1.2521,3.0073,-2.6808,-1.584,-2.7064,2.1913,-1.2523,-3.548,0.50779,5.7624,-0.12993,-2.0433,0.099185,-2.349,-1.4308,4.997,0.63526,-0.92071,1.4259,1.8085,-1.8898,-1.1501,-2.7063,-1.4309,-2.1963,1.0432,1.2475,0.86485,1.9615,1.5023,-0.99727,-0.053244,2.5739,-3.5991,2.1401,-1.5838,-0.053311,3.3384,-1.9407,-1.3287,-0.6402,-3.3949,-0.97179,0.023047,0.63521,1.2984,0.68623,1.1199,-0.99729,-1.6095,3.441,3.0329,-0.41058,-1.89,-1.1502,-0.18089,-1.4054,2.8798,-0.58929,-0.35963,-0.92074,-1.6348,0.35448,1.63,1.3238,-1.4053,-0.97168,3.1606,-2.8847,-1.8389,3.9001,-0.81871,-1.8644,1.9357,-3.4203,-1.5327,2.8032,-0.20666,-1.482,1.9106,0.63521,4.3849,-1.8898,-1.7369,-0.97182,0.38005,-3.2675,0.86477,1.0943,1.9616,-0.002491,-1.0737,-1.2522,0.38028,0.43121,0.022968,1.1198,0.38025,-1.2015,-0.4106,0.12504,-0.99719,2.2678,-0.61465,-1.5839,-1.1248,2.6757,2.3442,3.288,-2.298,-3.9816,-3.7776,1.222,1.7066,-1.8135,2.0126,-1.0738,0.3547,2.1656,0.60967,2.9054,-3.2164,0.27812,-0.10439,-4.4663,-1.5585,4.4358,0.8648,-2.7318,-1.4818,-0.078959,1.2474,-1.9156,-2.4513,3.6452,-0.69112,-1.0737,1.3493,0.8136,0.68613,-0.3849,-0.053531,-0.15553,-0.69129,0.38013,-1.3795,0.43131,1.5024,0.227,-1.4309,-1.1503,1.2219,0.09943,1.1963,-0.28304,0.17607,0.58417,0.15067,1.1455,-1.4054,-1.5329,-1.788,1.1964,0.60966,4.1298,4.1807,-2.7825,-0.71658,-2.987,-5.3847,1.1709,0.58414,2.4463,0.099637,0.17614,-2.2472,2.242,4.6653,0.30364,-0.51256,-0.30847,-1.7114,-2.4256,-1.2013,-0.56362,2.2676,-0.13013,0.76299,0.63532,-0.28309,-1.6095,-1.8901,0.22697,1.4004,0.81371,1.5025,0.30361,0.63514,0.35463,-0.25739,-1.4563,-0.35949,-0.99725,1.324,-1.1248,-0.6402,1.9871,-2.2727,-2.1451,5.2012,2.6758,2.0891,-3.6757,-2.2982,-1.2013,-1.4054,0.30361,-0.6144,3.2368,0.35457,0.3547,0.023108,-0.69115,-0.46159,0.099632,-2.5787,-0.86963,7.1398,0.35462,-0.33416,-1.482,-1.2015,-1.6861,-1.9666,1.3495,-0.86965,-1.4309,1.63,1.5535,2.9309,-1.3033,-1.7369,0.1506,0.81383,1.8595,-0.74225,-4.1857,0.60975,4.5123,2.9054,-2.7317,-1.4309,-3.0379,-1.7115,0.6352,-2.1706,1.3239,2.6759,-0.69118,0.048487,-0.33401,1.9616,3.6962,-0.66559,-1.992,-1.2268,-1.1248,0.35437,-0.10455,0.38015,0.66075,0.4312,-1.0482,-1.533,-0.5892,0.20163,3.4411,0.32915,0.86483,-0.53807,-1.431,-1.686,-1.4564,2.0127,0.55871,-0.94625,0.45669,0.40566,-2.1961,-1.635,4.9715,2.2677,1.2984,-2.3747,-2.1451,-1.7625,-0.74224,-0.053402,0.58418,-0.078959,0.96683,0.73726,0.32912,-0.15557,1.4004,0.78817,1.2729,1.3495,-1.7369,-2.349,-0.89518,-0.02798,-0.84423,0.68608,0.22694,-2.1962,-0.23201,-0.10444,3.9768,-0.12999,-1.89,0.30364,2.0381,-1.1248,0.60977,-3.1143,0.66076,-0.51265,2.7268,-1.533,0.048543,0.38016,1.0944,-1.2269,-1.686,-0.002521,-0.25754,0.60974,1.3494,0.71181,-1.0482,-0.30845,0.074044,0.83913,-0.53828,-0.74225,-0.58905,-0.027907,1.9616,3.7983,-1.3799,-0.43601,-2.0429,0.073953,-1.5331,-1.533,1.4003,-0.41057,2.1913,0.32915,0.2526,-0.35964,-1.3288,-0.84425,-1.5329,2.5483,5.3797,-0.81869,0.94131,-2.0686,-1.1248,-2.1706,-0.15549,-0.53817,-1.3288,1.3749,-0.97177,-0.23201,1.1199,0.27808,-0.38512,0.68626,-0.64015,-1.9411,1.936,0.43115,0.58428,-1.3798,0.71177,-0.51262,-0.53812,-0.002491,-0.69122,-1.4308,-1.1759,3.4155,2.4719,-1.3288,-1.1248,-1.1248,-0.6657,-1.0484,-0.002454,1.0178,-0.10458,1.1709,-0.43607,1.6811,0.4822,0.48222,-1.5074,-0.10449,0.074075,-0.23202,0.63529,-0.64028,-0.35963,0.1506,-1.1758,0.40568,0.30366,2.5483,-0.89524,0.4822,-1.2779,0.023029,0.55867,-1.533,-0.078972,1.1454,0.12514,-1.0482,0.50762,-0.58917,-0.76771,-0.1555,1.324,1.2219,0.48217,0.4567,-1.5839,-1.839,0.25263,-0.027962,-0.053537,0.20151,-0.002479,-0.58914,-0.4361,1.0178,0.27811,-0.74222,-0.64015,2.2677,-0.71668,2.4463,0.60976,-1.5074,-0.64013,-3.0123,-1.0482,0.12504,0.5076,4.0787,-0.46157,-1.7881,-0.41059,0.30369,-1.6095,0.96682,-0.02798,-0.8187,-0.078984,1.8085,-0.28312,0.89034,1.9872,0.074106,-0.76769,-0.53817,-0.53807,-1.2523,-0.9973,-1.1759,3.1095,1.2984,0.86475,-0.58917,-0.46157,-0.84415,-1.1248,-0.13003,1.579,-0.15556,0.074013,-0.35956,0.30364,-0.38504,-0.12998,-0.43606,0.023029,-0.76773,1.1454,1.8341,2.7523,-1.5074,-0.81872,-1.6859,-0.94621,-0.23196,-0.181,-0.079039,0.4566,-0.43615,-0.86975,2.8289,0.15057,0.22713,1.1199,1.2474,-2.2216,-0.74218,0.2782,-0.84422,-0.38516,-0.81873,-0.58912,0.25262,3.3136,-0.12999,-1.8901,-1.0993,2.4463,0.40565,0.55871,-0.79321,-0.79319,-0.43608,0.68626,-1.4309,-0.35954,-0.33405,-0.94625,2.1912,1.0943,-0.86976,0.35462,2.1912,-1.0227,-0.58908,-0.46156,-0.25756,-0.28306,0.25254,-0.5637,1.2474,-0.079002,0.81379,0.38016,-0.53808,-1.6859,-0.28306,2.0126,0.50766,0.63523,-1.2523,-1.0227,0.40568,-0.35959,-1.584,0.66074,1.2984,0.71173,-1.2524,1.1709,-0.20653,-0.69118,-0.8187,1.8086,0.27811,0.074038,-0.69118,-0.92074,-0.23203,0.45668,0.50766,-0.89527,1.426,-0.53811,-0.5381,0.15059,-0.079008,1.1199,0.60976,-0.56365,-0.18103,-1.3544,-0.51262,1.6556,-0.078959,0.22715,0.099546,-0.66569,0.9413,-0.7422,-2.2216,3.9512,0.02301,-0.79322,-0.41058,0.38008,0.76275,-0.99725,-0.28303,-0.51263,-0.66565,1.5025,-0.25754,-1.4054,-0.74218,-0.053506,2.2422,0.5332,0.023065,-0.10455,-0.23208,-1.584,-0.74214,2.982,1.7831,-1.2523,-1.4054,-0.61466,-0.4361,-0.86969,-0.6402,-0.15553,-0.10452,0.048561,-0.15549,1.0433,-0.43609,1.5535,-1.2778,1.0179,-0.053446,0.73723,-0.9973,-0.5381,-0.81868,-0.43614,-0.7677,0.66069,-0.079033,0.32911,1.4515,-0.41059,0.55872,0.40576,-0.43607,-0.46161,-0.43614,0.7117,-1.4054,0.48217,0.12512,0.12509,-0.84422,1.4005,-0.078977,-0.99732,-0.61467,1.2729,0.71177,-0.13001,-0.46157,-1.0227,0.30363,0.09957,0.58424,0.4567,-0.25761,0.20155,0.022998,-1.0993,0.3036,1.0944,-0.94622,0.15064,0.38017,0.15058,-1.1759,-0.5636,1.1965,0.38014,-0.5382,-1.3034,0.76278,0.50769,-0.41055,1.8851,-0.81868,-0.6402,-0.58919,-0.92077,0.91579,0.40568,2.8034,-0.12998,-0.74214,-0.84414,-0.94625,0.15054,-0.15553,-0.20655,0.17607,2.0381,1.2474,-0.76773,-2.0176,-0.64015,1.5025,0.048549,-1.2778,0.43119,-0.71667,0.048585,1.63,0.99229,-0.64014,-0.4616,0.074093,-0.86976,-0.35959,2.0126,0.17611,-1.3544,0.1251,0.27817,0.40569,-0.48708,-0.58915,-0.41064,-0.33415,-0.10452,1.0433,-0.8697,0.4057,-0.64007,-0.15546,0.40566,1.2218,-0.53815,0.25254,0.099521,-0.69119,-0.6911,-0.02798,1.7321,-1.1503,-1.5074,1.324,0.60975,-1.3798,-0.33409,1.2219,-1.2524,0.73728,-0.89527,1.0689,2.2932,0.15058,-0.97177,-0.74219,-0.25754,0.35461,-0.66568,-0.61464,-0.69113,-0.13002,0.66069,0.68624,-0.41062,4.1043,-0.53819,-0.94619,-1.3289,-1.3543,-0.4106,1.2985,-0.51259,-0.46156,-0.053519,1.2729,-0.1301,-0.028018,-0.74225,2.8289,0.78826,-0.18097,-0.69111,-1.4053,-0.43608,-0.56364,0.96679,-0.15554,-0.46154,-1.2012,3.8237,-0.7678,0.12496,-0.66575,0.30356,0.15053,-0.46161,0.04858,0.96689,0.53325,-0.46159,-0.35953,-1.4819,0.55872,-0.35961,0.38014,-0.002467,0.2526,1.63,-0.18101,-1.4819,1.8341,0.1251,-1.7116,0.86473,0.074026,0.30361,-0.74218,-0.74218,0.63521,0.023065,-0.20649,-0.7421,0.048598,0.76268,2.4207,-0.079026,-0.61463,-0.76768,-1.2013,-1.4819,0.27811,1.2728,0.86475,0.25257,0.99235,-0.2575,-1.3034,-1.5074,0.40562,3.186,0.45669,-1.3543,-0.89525,-1.3288,-1.0737,0.76277,1.1453,-0.46164,0.78827,-0.79324,0.50769,0.38014,-0.71666,0.22712,0.48218,-0.51264,1.732,-1.0993,-1.3034,-1.9666,0.43119,3.033,0.48217,0.73726,-1.0483,-0.38502,-0.4871,-1.0228,-0.51262,0.9923,-0.027974,0.023047,0.17611,0.53314,1.0178,-0.48713,1.5535,-0.66565,-1.2013,-0.43612,-0.74221,1.8596,0.15059,-0.43604,-0.64016,-0.69118,-1.0993,1.7831,0.40562,-0.23205,0.27811,-0.30858,-1.4309,-0.81868,0.7883,1.8085,0.48213,0.63525,-0.35952,-0.79319,-0.53812,0.15061,0.43116,-0.8187,-0.30858,0.73723,-0.56362,0.048573,-0.25759,0.20164,-0.181,0.81376,-0.027931,1.9616,-0.51266,-2.0431,-1.2013,2.2932,-0.35956,-0.23205,-0.69111,1.579,-0.18102,0.35469,0.27808,-0.46165,-0.41064,-0.48709,-0.18103,-0.18097,-0.027974,0.17607,-0.64019,0.66077,-0.35957,0.73725,-0.69119,0.40566,2.5738,-1.3288,-0.053433,-1.0738,-1.0228,0.63519,-0.74223,0.0485,0.96683,-0.053495,-0.18099,0.099577,-0.89521,-1.1248,0.30361,2.4718,1.1709,-0.7167,0.17605,-1.3033,-1.1248,-0.027956,-1.3799,0.12506,-0.12999,-0.23205,0.91586,0.63517,-0.13007,-0.58914,1.0689,2.9309,-0.79316,-0.46157,0.17606,-1.1759,-1.3289,-1.1758,0.96681,0.38015,-0.20653,-0.66562,-0.078977,0.73728,0.09957,-0.58916,0.60971,0.5332,-0.66567,1.477,0.048512,-0.51258,-0.74223,-0.25756,-0.58915,-0.38511,0.27808,-0.10453,-0.28308,0.22712,2.3698,-0.71666,-0.56355,-0.232,-0.35953,0.73725,-0.46161,-0.25761,-1.0483,1.0688,0.20163,-0.053464,-0.02795,-0.25757,0.099546,0.3291,0.27809,2.1657,-0.97175,0.20163,-0.48712,-0.64015,-0.51262,-0.18103,-0.25751,-0.84424,0.99232,0.81375,0.63526,0.3802,-1.1503,1.63,-0.20655,-0.61468,-0.25754,-1.5074,-1.1758,3.237,-1.0228,-0.69123,0.78826,0.099595,-0.10444,-0.53812,-0.10446,-0.4361,-0.48711,0.55867,1.0178,0.76277,-0.12999,-0.43611,-0.15549,-0.25754,-0.23206,-0.51262,-0.23203,0.20157,0.35464,0.91581,-0.25753,-0.1555,-0.69116,-0.71671,0.63525,-1.3543,2.2422,-0.48714,2.0637,-0.69122,-0.18098,-1.9411,-0.35956,1.0178,-0.71664,-0.1045,0.1251,0.55866,1.0178,0.3291,-0.38506,0.81378,-0.76767,-0.002443,-0.58914,0.073989,0.48216,-1.1248,1.8852,-0.58916,0.20159,-0.13001,-0.56363,-0.41055,0.27808,0.3036,-1.0483,0.55871,-0.69117,-1.1503,0.32915,3.7727,-0.15553,-1.2013,0.27816,0.22706,-0.76769,-1.3544,0.43117,-0.86972,-0.46164,0.96681,1.63,-0.15554,-1.0228,0.20163,-0.53812,0.89039,-0.43612,1.528,-0.74221,0.71177,-0.69119,-1.4819,0.91582,-0.74219,-0.002467,-0.46156,0.30361,-0.53815,0.099521,2.0637,0.55867,-0.25754,-0.66568,-0.10449,-0.71665,-0.4871,-0.74215,0.50765,0.55869,2.3188,-1.737,-0.35956,-0.20653,0.048512,0.25257,-0.58918,-0.13001,-0.1045,0.3802,0.099577,-0.23198,0.60972,0.023054,-0.46159,0.023029,0.32915,-0.23209,0.30359,1.4005,-0.35956,-0.51262,0.53318,0.30358,-0.81876,-1.0483,-0.64015,2.5738,0.35472,0.099595,-0.18105,-1.4309,-0.053506,-1.5074,0.58418,1.4515,-0.51268,1.5535,1.0944,0.55877,-1.7879,-0.2575,-0.23209,-0.20661,0.15051,-0.41065,-0.0535,-0.053439,-0.30854,-0.2575,0.048585,0.63523,0.12506,0.099564,0.99235,-0.58911,-0.20655,0.58422,0.25259,-0.18105,0.55868,-0.53817,0.58421,0.48216,-0.71668,0.074057,-0.58913,-0.002405,-0.79321,1.1964,-0.10452,-0.74218,0.12509,0.86479,0.25262,-0.33407,-0.18106,0.45663,-0.38509,-0.28302,2.2933,-0.97172,-0.99727,-0.25751,-0.38517,0.27809,-0.6657,1.477,0.58425,-0.64015,-0.30857,-1.2013,1.2984,0.023005,-0.53811,-0.10447,0.35465,1.1965,-0.43612,-0.027956,-1.0228,-0.23205,-0.13002,0.32913,0.50766,-1.9921,-0.10452,1.0944,-0.10452,0.40566,0.48221,-0.64015,0.43117,0.25259,-0.1555,-0.48711,0.17612,-0.43607,-0.69114,-0.46153,0.73723,1.1453,-0.69125,-0.079021,-0.41057,-0.69116,0.25266,-0.53809,0.73722,-0.1555,-0.41059,-0.002454,0.94134,0.02301,-0.81871,0.12506,0.12508,-0.69116,-0.38508,-0.25753,2.0127,-1.3799,1.8086,0.53317,-0.13005,-1.4054,-0.79318,0.53321,0.45666,-0.8187,-0.13001,-0.66563,0.32913,0.45667,0.22708,-0.4616,0.83927,0.15057,0.5587,-0.7422,-0.64015,-0.30854,1.1709,-0.41058,-0.3086,0.0741,-0.58918,-0.181,-0.10448,-0.84424,0.25259,1.1964,0.35465,1.9106,-2.6043,-0.58913,0.15057,-0.28305,-0.33413,2.4207,-0.53813,-0.41055,-1.0482,0.81382,-0.33402,-1.2778,0.91581,1.0433,-0.20655,-0.13007,-0.18101,0.50769,0.023054,0.83932,-0.18104,-0.81871,-0.38508,0.22712,-1.3544,-0.38506,1.8851,0.48219,-0.38509,-0.97176,-0.46162,2.3953,-0.053458,-0.46159,-0.84424,0.48218,0.71173,-0.64015,-0.30856,0.58424,-0.41061,-0.48715,-0.43611,-0.05347,1.0434,-0.51262,2.0637,2.5483,-1.0228,-2.1196,-1.6094,-0.30858,0.40563,0.35464,-0.51262,-0.51265,0.35465,0.81379,-0.20647,-0.94627,-0.79321,1.8341,1.2729,-0.81871,-0.56365,-0.12998,-1.0482,0.099552,0.50767,0.25258,0.71175,-0.97177,-0.07899,0.074057,0.86483,-1.686,1.1964,-0.51257,-0.4616,-0.51263,0.20155,0.48216,0.15056,-0.99726,0.86478,-0.64015,0.53318,0.99235,0.53326,-0.92076,-1.4053,0.09951,2.1146,-0.94628,-0.7932,0.15057,0.27813,-0.4871,-0.28307,-0.053427,1.0179,1.0944,-0.28307,-0.56366,1.2474,1.375,-1.2013,-1.4309,-0.76769,-0.46162,-0.23205,-0.38513,0.68624,1.477,-0.48713,0.83931,-0.0535,-0.56364,0.53321,0.074093,-0.53812,-1.0738,0.50768,-0.46164,-0.28307,1.8596,1.0434,-0.053427,-0.33407,-0.4616,-1.9155,0.048531,0.099588,-0.28305,-0.43613,-0.15554,0.76275,0.48214,0.099583,-0.25759,0.71177,0.35464,-0.66562,-0.002443,0.45667,-0.002436,0.68621,-1.2013,-0.002479,0.27812,0.48222,-0.53818,-0.92076,-0.48712,0.32915,0.58422,-0.18105,1.1709,-0.28303,0.17608,-0.46163,-0.35956,0.023059,0.12507,0.55871,0.099521,0.048561,-0.28302,-0.25752,0.023047,0.40566,0.45663,-0.53817,-0.6147,0.023017,-0.46159,0.89035,0.60976,-0.92069,0.40565,-0.48709,0.22707,0.38014,-0.89524,0.32916,-0.23203,0.15054,1.8086,-0.69121,1.0433,-0.86977,-0.41058,-0.81871,0.55871,-0.30856,1.0434,-0.35959,-0.79318,-0.12998,0.35465,0.35465,-0.38514,0.71171,-0.30859,-0.053458,1.477,-0.283,0.20163,-0.8442,-0.92073,-0.69115,0.94133,0.58421,0.38012,0.3036,-1.3289,0.50765,-0.64017,-0.79322,-0.053476,0.86481,0.1251,0.023017,0.1251,0.22708,-0.35956,0.50766,-0.61465,1.0178,0.78828,0.023035,1.6811,-0.30858,-1.4054,-2.4257,0.32917,0.20161,-0.81867,0.3036,-0.002454,0.35462,0.02301,0.22708,-0.15551,0.66077,-0.53812,1.273,-0.30854,-0.28307,-0.64015,0.73725,0.86476,0.32912,-0.25753,-0.94626,-0.30855,-0.35954,-0.51262,-0.74217,0.68625,-0.20655,-0.6147,1.2474,0.17611,0.48221,0.55871,0.60968,0.023041,-0.69121,-0.20652,-0.71665,0.17606,-1.0228,0.53323,0.32913,-0.64018,2.1402,0.22711,-0.89523,-0.89525,-0.71668,-0.56367,0.45666,-0.027969,0.35464,0.099559,0.35463,-0.053495,0.048555,0.023035,1.2984,-0.23202,0.0741,-0.69117,-0.18101,-0.027944,-1.1503,0.50768,-0.10455,0.38016,0.58419,-2.0685,0.8903,0.17609,-0.38508,-0.84424,-0.181,1.3749,0.074051,-0.23204,-0.002461,0.35459,-0.078966,-0.20655,-0.181,-0.078996,0.32915,-0.33407,0.17609,0.40566,0.58424,0.78828,-0.35953,-0.38511,0.023041,0.023023,-0.33409,-0.002454,-0.46159,0.023065,1.0433,-1.0228,0.50768,-0.20652,-0.92074,0.71176,-0.33406,0.15061,0.63526,-0.46164,1.4004,0.048525,0.66075,0.48219,-0.53811,-1.4819,0.91579,0.38014,-1.0228,0.15059,-0.35958,-0.30859,-0.38504,-0.078941,1.1199,-0.002503,0.023005,0.53321,0.8393,-0.51263,-0.97179,0.60972,-0.078959,0.12512,-0.97168,-1.2268,0.17605,-0.56364,0.78823,0.048536,2.1912,0.17608,-1.0993,-0.51263,-1.2523,-0.6146,0.55871,1.6556,0.20158,-0.53814,-0.15556,-0.10452,-0.35959,-0.25753,0.35465,0.58423,-0.46161,0.50773,-0.20655,0.048549,-0.4106,-0.4106,0.27809,0.25259,0.20162,0.45672,-0.79312,-0.51259,-0.89522
-0.4106,0.30361,-0.20652,-1.2779,4.691,-0.64018,-0.99726,-1.1503,-0.30865,-0.33412,0.048573,0.15059,0.099619,0.35466,-0.12997,0.71173,-0.002461,-0.48716,-0.053482,0.68623,-0.053488,-0.4361,-0.053482,0.55871,-0.20653,-0.25753,-0.30855,-0.33407,-0.28305,0.048549,0.12506,0.15056,0.17609,-0.00243,0.15062,0.35463,-0.5126,0.22708,0.048512,-0.35961,-0.81861,2.1146,0.45662,-0.48711,-0.64011,-0.48706,-0.20651,0.25259,0.20159,0.45666,-0.15551,-0.15553,0.023041,-0.10449,-0.30853,-0.02798,0.12508,0.20156,-0.23204,0.20158,1.2984,-0.35959,-0.23203,-0.28305,-0.71665,-0.20653,1.528,-0.71668,-0.53815,-0.3851,0.30361,-0.25753,0.5842,0.12509,-0.18101,-0.181,0.048555,0.2781,0.32912,0.074044,-0.078996,-0.15545,0.43107,-0.079008,-0.027944,-0.15547,-0.12998,-0.46161,-0.4361,-0.35957,0.15057,0.68624,0.30363,0.048561,0.12509,-0.33405,0.12507,-0.33409,1.0434,-0.61465,-0.3851,-0.20653,-0.053506,-0.002454,0.099564,0.4822,0.074062,0.38017,-0.20657,-0.43612,0.20161,0.35464,-0.078953,-0.12999,0.023059,-0.07899,-0.33407,0.17607,0.074038,-0.10451,0.32913,-0.23204,-0.53803,0.2015,0.17607,0.048555,-0.078959,-0.15549,-0.13001,0.48216,0.074044,0.15059,-0.58914,0.5077,-0.76767,0.50769,0.60975,-0.81873,-0.48711,-0.028018,0.58421,0.89028,-0.25753,-0.30855,-0.20649,-0.30855,-0.053476,-0.13,0.048543,0.023029,0.53316,0.15059,0.099552,-0.33403,-0.35957,-0.23202,0.099564,0.30361,0.6352,-0.38511,0.048561,-0.002485,-0.30854,-0.07899,-0.35955,1.3749,0.30364,-0.97177,0.074081,-0.13004,0.048549,-0.0535,-0.43607,-0.33405,-0.13,0.074062,0.20159,0.15057,-0.002467,-0.18095,0.40557,0.17604,0.12507,-0.002436,-0.12996,-0.25751,-0.027969,0.048531,0.15057,-0.18105,-0.53813,0.83929,-0.84422,0.32914,0.40566,-0.30854,-0.002485,0.2526,-0.33407,-0.51262,0.048561,-0.027987,-0.1045,0.12509,1.528,-0.30855,-0.58914,-0.56366,0.53313,-0.002454,0.17608,-0.25751,-0.23203,0.35468,-0.18103,0.074075,0.12506,0.53321,-0.28308,-0.66567,-0.53815,0.76278,0.35463,-0.23197,0.27806,0.048525,-0.18103,-0.181,-0.078972,0.30365,-0.18102,-0.23204,0.12509,0.20159,-0.30854,-0.027987,0.55872,0.02301,-0.07899,-0.25756,0.048531,-0.13,-0.48709,0.50771,-0.23202,0.32915,0.099564,0.17607,0.50768,-0.20653,-0.15555,-0.64012,0.12507,-0.43607,0.27811,0.43119,-0.20654,-0.35959,-0.20654,1.2729,-0.20653,-0.13002,-0.69115,0.55871,0.2016,0.12509,-0.20653,-0.66557,0.30349,-0.23207,-0.053506,0.96684,0.048573,-0.38505,-0.43606,-0.1045,0.099583,-0.053464,0.17609,0.20159,-0.20654,-0.38508,0.81371,-0.35955,-0.078984,0.023035,-0.30854,0.30363,0.45667,-0.28306,-0.10449,-0.20653,1.1964,-0.56362,-0.41058,-0.71669,0.099595,0.12507,-0.002479,-0.002479,0.15057,0.1251,-0.33409,0.32911,0.27809,1.528,-0.078966,-0.41058,-0.58915,-0.0535,-0.002472,0.099559,0.023041,-0.61465,-0.33407,-0.053495,0.20159,0.074044,-0.4106,0.5587,-0.25753,1.426,-0.53811,0.22707,0.07394,-0.13002,-0.69112,-0.4615,0.15056,0.30361,0.38016,-0.181,-0.12999,-0.002448,-0.1555,-0.078996,-0.07899,0.20158,0.43113,-0.10455,0.81368,-1.0991,-0.84423,-0.43616,1.7065,-0.00243,-0.38508,-0.43607,-0.053482,-0.20652,-0.053506,0.048561,-0.15551,0.22712,-0.027969,0.66074,0.2526,-0.13,-0.66568,0.48216,-0.51262,-0.25754,-0.15553,0.048573,0.099564,1.426,-0.18106,-0.2576,-0.41062,-0.43609,-0.10449,0.78831,0.12508,-0.28304,-0.41058,0.2271,0.32912,0.40564,0.30361,-0.64017,-0.61468,-0.30855,0.15056,0.58424,-0.18098,-0.23197,0.55856,-0.027998,-0.89513,0.20159,0.45663,0.68627,-0.30856,-0.46157,-0.30857,0.17611,-0.027962,-0.4106,0.53318,0.48214,-1.1503,-0.30857,0.45677,0.71165,-0.20652,-0.13001,-0.18098,-0.12999,0.074081,0.15056,0.96683,-0.33408,-0.13002,0.25263,-0.10448,-0.3851,-0.6657,-0.23207,-0.15553,0.2271,0.12509,0.94131,0.12508,-0.053476,-0.23202,-0.10448,0.30363,-0.35957,0.12506,-0.027987,0.074044,0.048561,-0.4361,-0.20649,0.32913,-0.25753,0.48216,-0.7422,0.20157,0.35463,-0.30855,0.58422,-0.12999,-0.027969,-0.053495,-0.23201,-0.18101,0.83928,-0.33404,0.53315,0.099503,-0.61467,-0.35954,0.35468,-0.181,0.048567,-0.99726,-0.7167,0.50768,1.477,0.50768,-0.1045,0.48218,-0.23205,-0.51261,-0.46162,-0.027969,0.2016,-0.078984,-0.28304,-0.027969,0.1761,-0.25754,0.91584,0.048567,-0.28305,-0.12999,-0.30858,0.15053,0.099528,0.30361,-0.1555,-0.48705,-0.078984,0.0741,0.48219,-0.13002,0.074057,-1.0228,-0.51263,1.681,-0.41058,0.50771,-0.28303,-0.12999,0.099588,-0.25757,0.27812,-1.1502,0.96673,-0.13005,-0.10449,-0.10444,-0.43606,-0.81869,0.53319,0.60973,0.099546,0.099546,-0.053495,0.20158,0.12509,-0.1045,-0.28301,-0.25756,-0.20652,0.023035,0.023041,-0.053495,0.9158,-0.48713,-0.027987,-0.53809,0.35464,-0.23201,0.20159,-0.13001,-0.13,-0.64019,0.94131,-0.25756,0.53321,0.86483,-0.86971,-0.10455,-0.18101,-0.1045,-0.25753,-0.18098,-0.002472,0.50769,0.074051,0.12507,-0.15551,-0.28305,-0.053488,-0.30856,0.48219,0.02301,-0.15546,0.27801,-0.13005,0.27812,-0.38503,-0.41056,0.15063,-0.1045,-0.18101,-0.10451,0.099559,0.2016,0.30361,-0.15549,-0.56365,0.53322,-0.20655,-0.30857,0.55869,0.66071,-0.38508,-0.30855,0.023065,0.023023,-0.38506,-0.43608,0.074038,-0.35955,1.1964,0.099552,-0.25759,-0.69118,-0.13,0.25263,1.1964,0.35459,-0.48706,-0.76769,-0.53812,-0.48711,0.32913,0.83928,-0.41049,0.32902,-0.28307,-0.15552,0.20163,-0.28304,0.86478,-0.25754,-0.28308,0.48219,-0.56363,-0.33405,0.63523,-0.027987,0.022998,0.048561,-0.28303,-0.23203,-0.15551,-0.07899,0.023059,0.32912,0.074062,-0.15553,0.2271,0.17606,-0.33404,-0.027993,0.17609,0.20152,-0.58904,0.02301,-0.15549,0.074038,-0.027962,0.023059,-0.027956,-0.078977,-0.002491,0.15059,0.30361,-0.15549,0.023029,-0.41058,-0.002485,0.20162,-0.33406,1.5025,-0.66569,-0.99728,-0.30854,0.20155,-0.12991,0.50773,0.40557,-0.002479,-0.12998,0.32915,-0.25754,-0.51254,-0.02806,-0.13002,0.17612,-0.2065,0.40569,-0.053476,0.09951,0.17608,-0.053495,-0.20649,0.17602,0.4311,-0.28308,-0.20646,-0.027969,-0.10448,0.58417,-0.48699,0.43101,0.099534,-0.691,0.35464,0.074033,-0.053495,0.12507,0.048531,-0.07899,-0.15553,0.86476,-0.002491,-0.38508,-0.79299,2.1397,-0.35952,-3.5472,0.81363,0.86456,-0.25753,0.40549,1.4768,0.68623,-0.12994,-0.38502,-2.3998,1.043,-0.56357,-0.053439,0.91564,0.25256,0.86493,-1.1247,0.12514,-2.8334,3.5678,0.35453,-3.981,0.68616,0.99201,0.048438,-1.2523,4.3846,1.732,-2.0683,-4.5675,-0.61477,2.3437,2.1398,0.94101,3.0585,-1.201,1.2475,-2.4513,-3.4456,1.2731,5.456,-2.3235,-0.43613,-0.23219,-0.79346,-0.58935,0.37997,2.3957,6.756,-5.4603,-2.9604,-1.2525,4.5889,-5.3327,2.8539,1.2471,-3.9814,3.4658,-2.0175,0.68654,-3.7266,0.94174,8.1593,-2.1198,-1.8897,-4.3388,4.3084,2.0891,-2.4511,-2.1702,-0.078966,-1.9921,-3.0635,9.3842,0.60959,2.2677,-4.9766,-0.64015,-2.2982,-1.5327,-1.048,0.99147,1.3241,0.25314,0.5843,0.023041,1.4004,-1.3035,1.9106,-0.94612,1.2219,0.58421,-1.5328,0.76242,-1.4565,-2.9359,-1.5586,-0.43601,1.6047,0.22734,0.25282,0.83931,-0.079063,3.2625,-1.9919,1.6038,-1.1502,-2.1704,-1.7881,4.2062,0.81386,-1.7367,-1.7115,1.3494,1.8595,-1.3546,-2.3486,-1.7115,-0.20685,-0.078984,-0.078806,-0.30858,5.2265,1.1708,-0.81876,-1.0228,1.0433,-0.94628,-0.66574,-1.8644,1.3751,-1.3288,0.3547,-0.51258,0.35465,0.96671,-1.584,1.8085,-1.0482,0.9157,-1.7879,-2.6809,3.135,3.6195,-1.4054,-2.4509,-2.0176,-1.584,-0.7167,0.48219,2.1404,1.757,-0.58894,-1.6092,1.0177,2.9562,1.936,-0.71651,-2.3231,-0.48735,0.96673,3.1348,-0.15557,-3.0122,-3.2673,-0.84414,-1.3034,-0.41061,-0.028011,0.66075,-0.53809,1.4768,0.2525,0.40564,-0.027993,0.04858,7.8795,-1.7368,-1.6351,-0.8442,-1.1503,-1.8135,-0.69119,0.78828,0.17609,0.89029,1.8851,-1.3032,-1.0227,0.3801,2.0636,1.477,-0.25786,-0.053733,-2.8334,-1.4308,-0.97173,-0.71677,2.3696,0.073989,2.7269,-0.92065,0.68619,-2.0685,-2.0177,1.1196,0.83923,4.6655,-0.56351,-2.6551,-0.81859,-1.2523,-0.61464,-1.6861,0.35451,-0.10454,-0.30858,-2.9104,7.3438,2.5483,2.3187,-2.8593,-0.61464,-0.76771,-0.43613,-0.66562,0.73717,-1.4308,-1.1758,0.15059,0.53321,0.17611,-0.35953,1.1199,-0.7168,-0.12993,-0.002803,-0.63983,-0.33384,1.579,1.8339,0.09921,-2.8591,0.20145,-1.9154,-0.5891,1.2728,0.27811,-1.3544,0.81379,-0.43608,-0.81866,2.3187,0.96681,1.6045,-0.86977,0.20153,-0.58915,-0.81872,0.22717,-1.3033,0.99233,-0.35954,0.38022,-1.788,-0.3341,-0.30864,3.7471,-1.9411,-0.64016,1.4258,0.22702,-1.4819,-0.46152,-0.41047,0.40571,-0.6657,-0.56362,-0.18092,0.43117,0.40563,-2.1194,2.1398,-0.71646,-0.61477,-0.1553,0.86468,1.9104,-0.15579,0.63512,0.406,-0.94609,-1.2014,-1.2778,-0.18101,3.4666,-0.51263,-1.4309,0.25261,-0.66572,-1.5074,1.426,3.5177,-1.3545,-0.46162,1.2474,-0.35954,-0.028018,0.40558,-1.5328,-0.48701,-0.94622,0.022992,1.0943,-0.25747,0.63515,-0.028163,0.71175,-1.5839,0.27817,2.4718,-1.2267,-0.25763,-0.6657,-0.69108,-0.38514,0.71165,0.68621,0.76281,1.1964,0.15059,-0.027993,-0.8187,-2.298,3.9252,-2.3489,-1.7367,-0.027998,1.1452,0.38014,0.17606,0.32906,-0.10452,0.40566,-1.4562,2.2165,-1.3799,-0.3085,0.71177,-1.5329,0.86486,1.4259,-0.99727,-1.3799,0.099583,1.0943,-0.66568,0.17611,-1.0483,0.68624,0.99232,-0.89534,0.55866,0.96683,-2.0175,3.6706,1.222,0.48226,-2.145,-1.6859,0.12499,-0.079057,-0.64023,0.25259,-0.13004,2.4973,-0.74218,-0.7167,-0.02795,1.0689,0.76277,-1.686,-0.97176,2.0637,-0.23202,-0.97176,0.48215,-0.078972,0.53321,-0.18103,-0.89517,-0.10463,-0.79333,0.60946,0.048629,1.3751,0.15068,-0.69118,1.7066,-0.18106,-1.5839,1.2985,0.73721,-0.97173,0.55871,-1.0993,1.0433,2.2932,-1.5074,-1.3799,-0.81863,0.17615,1.7066,-0.25762,0.15054,0.81375,-0.94631,-0.078996,0.83932,-1.3288,-1.3287,-0.28294,0.99233,2.4716,-0.8189,0.099491,0.12504,-0.02792,-0.027925,-1.0227,0.58425,-0.92075,1.3239,-0.15539,-0.38501,1.2218,-2.5531,-0.079186,0.2015,0.15059,-0.56363,-0.33404,-0.74218,3.2625,-1.737,1.1709,0.38017,-0.79318,-0.33405,-0.56369,0.8138,0.12505,0.63524,-0.3086,-0.33407,-0.48702,1.3494,0.91576,-0.38509,-0.99723,-0.79314,-0.89524,2.0126,0.99231,-0.25757,-0.079063,-0.58912,-0.51255,-1.4819,0.66074,-0.23201,0.40565,1.1454,-0.028005,-0.41064,-0.38509,0.40568,0.1251,-0.15546,0.22705,-0.6147,0.68626,-1.2268,0.78822,-0.97179,-0.181,1.681,0.53315,-1.2268,-0.41058,-1.2268,0.81383,-0.9463,1.2728,0.91571,-0.99728,-1.4819,1.8086,-0.385,0.81379,0.15055,0.45666,-0.35959,-1.0228,0.35465,0.30363,0.71177,-0.76769,-1.0738,-1.3034,1.4005,0.35459,-0.46164,-0.18101,-0.027969,1.324,0.35463,-0.46161,-1.2778,-0.53804,0.43119,-0.41061,0.27811,0.81375,-0.33402,-0.38508,0.76271,0.50767,-0.33403,0.099577,0.30359,-0.33409,-1.0483,-0.002516,-0.002497,0.20164,-0.41058,-0.58914,0.53323,2.0381,0.099577,0.25254,-0.94623,-0.76769,-0.81871,-1.0483,-0.76764,3.6706,-0.15553,2.1147,0.12509,-1.3289,-0.99727,-1.5074,-0.71666,-0.028018,1.9106,-1.4309,0.6097,1.5025,0.099552,-0.41056,0.55871,-0.94622,-0.48713,0.76279,0.074069,-0.35947,0.22704,-1.1248,-0.18101,-0.74217,0.89028,1.0433,-1.8645,1.1963,-0.35961,-2.0941,1.9871,0.20159,0.023065,0.32915,-1.839,-0.078977,1.0943,0.048585,-0.46159,-0.079014,-0.25755,0.81382,-0.71671,-0.078941,0.45662,0.40561,0.45664,-1.1503,0.89032,1.9617,-1.4819,-1.3799,0.71179,1.6045,0.43118,-0.51255,-1.1504,-0.92079,-0.97179,-0.58911,0.02301,-0.053476,0.35465,1.2984,0.55865,0.86482,-0.078966,-0.10447,-0.078984,0.35466,-0.33404,-0.053476,0.17609,-0.76772,-1.0737,-0.51274,0.073965,0.30361,0.48223,-0.71664,0.94137,0.60971,-0.8187,-0.66563,2.5483,-0.76771,0.15054,-0.5637,-1.2523,0.96688,-0.76771,0.94127,0.023035,1.528,0.78823,-1.1248,-1.0993,-0.30853,-0.30851,-0.002467,-0.18099,-0.33406,0.40566,1.3239,0.073995,0.60968,1.0689,-0.7422,-0.81867,0.2271,-0.38506,-0.89521,1.0434,-0.18101,-0.43608,-0.079093,1.1963,-0.66562,-0.41057,-0.74215,-0.15553,-0.38508,-0.002472,1.1199,0.38011,-0.10448,0.94131,0.12512,-0.86971,-0.76767,1.1709,-0.56362,-0.71671,-0.58916,0.09954,0.48215,0.5587,0.43112,0.78829,-0.53815,0.4567,-0.53811,0.15062,-0.35962,-0.43614,0.94133,-0.02795,0.48222,-1.0993,-1.0993,1.2474,-1.2778,0.73725,1.2729,-1.635,1.8596,-0.30858,0.12505,-0.84421,0.048549,-0.28305,-0.20658,-0.30857,0.40565,-0.0535,-0.15549,0.074093,1.1709,-0.13002,0.099595,-0.66563,-0.97173,-0.53806,0.048494,-0.79316,0.17596,0.71169,0.9158,0.3036,-1.3799,1.8341,1.528,-0.43613,-1.4564,-1.2268,-1.3543,1.273,-0.38506,-0.15552,-0.002472,1.6555,-1.1758,0.9158,-0.46162,0.86478,-0.5381,-0.33407,0.17608,3.2625,-1.3033,-0.81873,-0.66567,-0.66568,0.20159,-0.30859,-0.58916,-0.28306,0.32911,0.25263,0.38016,0.17611,0.25261,1.2219,-0.74218,0.074087,0.38014,-1.2269,0.12508,1.5535,-0.43609,-0.69116,-0.43613,-0.13009,1.0943,-0.51265,-1.89,1.7066,-0.078941,-0.002503,1.3495,-0.51261,-0.53807,-1.2013,-0.7932,2.0892,0.38014,-0.51265,0.35464,2.4208,-0.8442,-1.2268,-0.053482,-0.43612,-0.7677,-0.48712,0.17605,0.66069,-0.002454,-0.43609,0.17614,-0.48705,1.9872,-2.7318,2.0891,-0.23211,-0.15551,0.074038,0.15059,0.45665,-0.13001,-1.3799,-0.18098,-0.28306,2.7013,0.22707,-1.5329,-0.1045,0.40565,-0.46164,-0.69117,-0.078935,-0.41054,-0.027974,1.2474,0.73723,0.48212,0.45667,0.15056,-0.61465,-0.10451,0.12512,0.17612,-0.33404,-0.61463,-0.053495,0.17603,0.63518,-0.38508,-0.25754,-0.18101,0.04858,-0.28302,-0.74218,1.4515,0.58417,1.1199,-0.20653,-0.79321,0.60969,-1.0737,-1.0993,-0.053458,1.5025,-1.2268,1.3239,-0.30858,-0.027998,-0.33407,-1.0482,1.0433,1.1454,-0.81873,-0.35953,2.1912,0.68627,-1.2779,-0.58913,-0.51266,-0.20653,-0.33405,-0.6147,-0.41057,-0.053476,1.0944,-0.13003,0.048531,0.9413,-0.58916,-0.41062,-1.4309,1.7321,1.5025,-1.1248,-0.71667,0.40568,-0.48714,-0.10451,-0.46163,0.81379,0.12507,-0.1045,0.17607,-0.20653,0.074057,-0.30857,-0.25756,-0.20656,-0.38509,-0.33401,0.15062,1.2729,1.4005,0.7117,-0.64018,-0.56369,-0.9462,-0.13002,-0.23207,0.023023,-0.35956,0.30368,0.099546,-0.35959,0.58423,0.48219,0.78824,-0.97172,0.7373,-0.56365,0.5842,-0.25756,-0.86969,-1.8645,1.1709,1.1709,-0.46164,-0.56366,-1.3034,0.63522,0.048573,-0.35953,0.30365,0.5077,0.25264,-0.94632,0.074033,0.45666,0.30365,0.38016,-0.74216,-0.86972,0.7373,-0.10449,0.96681,1.579,0.12504,-1.4819,-0.94625,-0.97171,-0.86972,0.68627,0.58418,2.7778,-0.94628,-0.58914,-0.92074,0.35468,0.12509,-0.97176,0.022998,0.25262,-0.027974,0.83931,0.63523,0.27811,1.1709,-0.53818,-1.3289,-1.5074,-0.002443,1.2729,-0.23204,0.81378,-0.53812,0.12507,0.09957,-0.38509,0.53317,-0.51263,-0.002461,0.15059,0.5332,-0.13001,-0.64015,-0.053495,-0.38508,-0.71666,0.12507,1.528,0.71173,0.15059,-0.38506,-1.0737,0.20161,0.78828,-1.5839,-0.2321,-0.18106,-0.25759,1.6045,0.20159,-0.2065,-0.64018,-0.4871,-0.027993,0.4822,-0.48712,0.023072,1.3495,0.94129,-0.25754,-0.25755,0.12506,0.43115,-1.3034,-1.0738,-0.92074,0.78825,0.91583,0.63523,0.76278,-0.23204,-0.078984,0.048555,-0.15549,-0.43612,0.15057,0.32909,-0.18103,-0.10451,0.20161,-0.46159,2.0381,-0.58914,0.15056,-1.0228,-0.76768,0.17608,0.25261,0.48219,-0.43609,-0.20652,-0.283,-0.027962,-0.35961,0.89029,0.99232,-0.13001,-0.35957,-0.027974,-0.30854,-0.28305,0.074087,0.8393,0.17604,0.07402,-0.51262,-0.43607,-0.43607,0.96685,0.60971,-0.18101,-0.4361,-1.0228,0.023023,0.15056,0.17608,-0.3851,0.38016,-0.12999,0.50768,-0.38505,0.89032,1.3495,-1.0993,-1.0993,0.02298,1.1453,-0.23202,-0.25754,0.20162,-0.51261,1.5025,-0.7422,-0.43608,-0.66567,0.22707,-0.053476,-0.30855,-0.33404,0.32917,0.50773,0.83928,1.6045,-1.686,-0.53817,0.048555,-0.56366,0.81378,0.35463,0.45668,-0.81871,-0.43609,0.30363,-0.079008,-0.23201,-0.20656,-0.38505,0.32915,0.43117,-0.66565,0.68624,0.58422,-0.23207,-0.74221,-1.1504,0.27812,-0.5891,0.55872,2.88,-0.41057,-0.69118,-0.33414,-0.76772,0.17611,-1.5074,-0.13003,0.94129,-0.61461,1.3495,0.60975,0.45669,0.60972,0.78825,-2.1706,1.477,-0.43612,-1.0483,0.023059,0.53325,-0.28304,-0.69121,0.58422,-0.86975,0.94132,-0.35958,-0.41058,-0.0535,-0.12999,0.17604,0.55873,0.12509,0.074111,-0.41058,0.38016,-0.3086,-0.15553,0.099546,0.12505,0.048549,0.074075,-0.20653,-0.66569,0.27814,2.2677,-0.18102,-0.28306,0.40571,-1.0227,-0.8697,-0.74218,-0.64015,2.1402,-0.69119,-0.28309,1.0944,-0.10452,-0.69116,0.2271,-0.43607,-0.027969,-0.00243,0.5587,-0.079008,-0.3851,0.9413,1.1709,0.023023,0.20164,-1.4054,0.1506,-0.33407,-0.25755,-1.0228,0.099595,-0.25754,0.94133,-0.0535,-0.64015,0.12509,0.53321,-0.51263,1.2474,-0.13001,0.20155,-0.7677,0.48215,-0.23203,-1.2268,-0.078984,-0.4106,0.99232,0.30359,0.048549,-0.30858,-0.13,0.023054,0.25261,-0.053464,1.1964,-0.10445,0.32916,-0.8187,-1.0738,-0.20654,0.32912,0.15056,-0.33405,0.32914,0.38015,0.83928,-0.69119,0.30361,0.074038,0.63521,-0.8187,-0.23205,0.023054,-0.18098,-0.25754,0.48219,0.25264,-0.25757,-0.35959,-0.64019,1.732,0.40567,0.53319,-1.0228,-0.84417,0.5842,0.12507,0.6097,-0.30859,-0.64018,-0.53815,0.53319,0.2016,-0.078959,-0.12995,0.15058,1.0689,0.40565,0.3546,-1.1759,-0.53816,0.074081,-0.76768,-0.30858,-0.33405,1.834,-0.053495,1.6045,-0.38509,-0.28304,-0.84424,2.6248,-1.1503,-0.66565,-0.33402,-0.66568,-0.12998,-0.28308,0.40561,-0.20656,0.43115,0.099564,0.17608,1.1199,-0.92073,-0.61464,0.73725,0.25262,-0.56367,-0.30856,0.048512,0.22712,-0.38504,0.32917,-0.1555,1.2219,-0.61463,-0.69121,-0.53815,0.76275,-0.3851,-0.7677,-0.078984,0.66077,-0.53811,0.27815,0.86478,0.074026,-0.028005,-0.89527,-0.4106,1.1454,0.20161,-0.078947,-0.76766,-0.33404,-0.05347,-0.002467,0.81376,-0.079057,-0.18101,-0.76772,-0.33405,-0.15553,0.2016,0.58422,0.35465,0.20163,-0.53814,-1.0738,-0.10452,1.834,0.5077,0.50771,-0.92073,-0.43609,0.5587,-0.3086,-0.84426,-0.58914,-0.71666,0.099595,1.0178,1.3494,0.3036,-0.30855,-0.35956,-0.28303,-0.23202,-0.25754,-0.86972,0.40566,0.2781,0.63523,-0.84424,0.63527,1.0689,-2.0686,0.68629,0.50766,-1.431,-0.48719,1.1964,0.023029,0.40566,-0.078996,-0.25753,-0.15549,0.27815,-0.18098,-0.078972,0.1506,-0.078972,0.074038,-0.15549,-0.078996,0.35461,-0.64015,0.40563,0.68621,-0.64018,0.89027,0.25265,-1.4309,1.8342,0.7883,-2.6042,-0.69122,-0.18105,0.3801,0.53315,-0.15557,-0.181,0.2526,0.30364,0.12513,0.83931,0.048585,-0.078996,-0.07899,-0.079002,-0.25751,-0.078984,0.099559,-0.23202,-0.48713,-0.71668,-0.002472,1.6045,-0.20652,-1.0993,-0.71669,1.579,0.22708,1.5025,-1.737,-1.0483,-0.4361,-0.23208,0.45667,-0.18097,0.32913,0.099534,-0.053519,0.8393,-0.079014,0.40566,0.32914,0.048512,-0.002423,-0.232,0.32917,-0.51259,0.12507,0.023029,-0.86973,-0.078984,1.0178,-0.46162,-0.10451,-0.23207,-0.23204,0.048561,-0.79318,-1.0228,2.2422,0.40568,1.1454,-0.002436,-0.30855,-0.38514,-0.18106,-0.027974,-0.99727,0.68624,0.45669,-0.71664,-0.053446,1.732,0.60971,-1.1503,-0.25755,-0.41057,-0.43613,-0.18101,0.1506,0.86483,-0.61464,-1.0993,0.78825,-0.20653,0.35462,-0.079008,0.2526,0.20159,0.023065,-0.078984,-0.002491,0.17612,0.048549,0.12505,-0.33405,-0.69119,-1.2268,3.237,0.27815,-0.61464,-0.4871,-0.64017,-0.94627,0.074038,0.55869,-0.56362,0.25263,0.15062,-0.3851,-0.53812,2.4208,0.53315,-1.4564,0.50766,-0.38506,0.20162,0.71177,-1.0228,-0.25753,0.3291,0.60973,1.1454,-0.66566,-0.69118,-0.078959,-0.002461,-0.69121,-0.64014,0.8903,-0.18099,-0.43609,0.023041,0.48218,0.3036,-0.027956,0.12505,-0.10449,-0.76768,0.27812,0.55872,-0.84423,-0.18102,0.35462,2.0637,-1.0483,-0.53813,-0.5126,-0.30855,0.53324,0.53318,-0.56359,-0.64017,0.074002,-0.1045,0.68622,0.25265,-0.97175,-0.30854,1.0689,-0.10448,-0.64016,0.5332,-0.35957,0.63518,-0.0535,-0.76769,-0.30856,1.2984,1.1964,-1.4054,0.023059,0.27814,-0.53814,0.68622,-0.23202,0.12505,0.96683,-0.33409,-0.51258,0.2271,-0.30856,-0.28305,-0.28308,0.2781,0.5842,-0.002467,-0.18096,-0.33402,0.074057,-0.18101,0.2781,0.048543,-0.33409,-1.3034,1.7065,0.76278,-0.97177,-0.25751,0.15059,-0.23201,-0.84423,-0.027987,-0.18101,-0.053464,1.1964,0.32907,-0.2065,0.15059,1.426,-0.13,-0.2065,-0.61465,-0.64017,-0.53814,-0.10449,0.099534,0.38016,-0.33409,0.20163,0.76279,-0.64015,-0.002491,0.099564,-0.58916,-0.69116,0.38016,-0.053476,0.074051,0.45669,0.074069,-0.38508,0.48219,0.023023,-0.30857,-0.18105,0.27812,1.1454,-0.20649,0.3036,-1.1758,0.40567,0.023017,-0.23203,-0.53815,-1.0228,-0.43606,0.68625,0.86478,-0.18103,0.12506,0.58421,-0.13004,-0.078977,-0.28305,-0.002418,0.17609,-0.41058,0.40565,-0.00251,-0.10452,-0.4361,0.53317,-0.20653,-0.02795,-0.33406,-0.28305,1.0944,-0.35957,0.32915,-0.20654,-1.0228,0.35463,-0.12999,-0.15553,2.2422,-0.74219,-0.69118,-0.48712,0.48216,-0.20652,-0.58913,0.38015,0.40569,-0.23204,-0.76772,1.0433,-0.12998,-0.23205,-0.10447,0.25267,-0.079008,0.76273,-0.20657,-0.38511,-0.078977,-0.84419,1.426,-0.41059,0.96685,-0.7422,-1.2014,-0.28306,0.48218,0.17611,1.4005,-0.97179,-0.53813,-0.15551,-0.027956,0.40568,-0.15547,0.048525,0.96677,0.83928,0.048531,-0.41058,-0.92076,-0.1555,-0.53812,0.73728,-0.053482,-0.25756,0.27815,0.53317,-0.053482,-1.3288,0.2016,0.83928,0.12505,-1.0993,-1.635,0.32915,1.579,0.8393,-0.053482,0.20159,-0.078972,-0.53811,0.43118,-0.41058,-0.4871,-0.027987,1.0178,0.074044,0.53315,-0.15549,-0.53814,-0.41058,-0.46162,0.099564,0.50769,0.43114,-0.84421,0.86478,0.4822,-0.30855,-0.33406,-0.53812,-1.0228,-0.15551,-0.23207,1.8341,0.94133,-0.4106,-1.5585,0.099588,-0.4616,-0.002472,0.2526,0.9668,0.60968,-0.28306,0.023059,-0.53807,-0.4361,0.76278,-0.48713,-0.25756,1.1454,-0.1045,0.22707,-0.12999,-0.86968,-0.86974,-0.86974,0.40565,1.426,-0.38508,-0.18101,0.099559,-0.23205,0.074038,0.71175,-0.53814,0.023035,1.0944,0.4567,-0.89524,-1.5074,-1.0483,-0.002461,0.20158,0.55872,0.60971,0.27811,-0.07899,-0.15549,1.0178,-0.20652,-0.15553,-0.43609,0.15052,-0.46159,-0.69118,-0.69116,-0.23203,0.81378,0.15056,0.023023,0.50767,-0.30855,-0.43607,0.8393,-0.13002,0.45672
-0.30856,-0.078996,-0.23201,0.048549,0.63524,-0.002448,-0.58919,1.0688,-0.053495,-0.58904,0.91575,-0.079039,-0.76767,0.68622,-0.69111,-0.74209,-0.002485,0.12502,0.81371,0.15056,-0.002467,-0.25751,0.32913,-0.002436,0.099564,-1.0483,0.32912,-0.25756,0.30361,0.15054,-0.23204,-0.053506,-0.1555,0.023059,0.58422,-0.10449,-0.053513,0.12505,0.38014,-0.28303,0.83927,-0.30853,-1.0737,0.43114,0.63517,-0.41061,-0.38504,-0.10453,0.50769,-0.10451,-0.23202,0.0485,-0.51262,0.91595,-0.15549,0.048476,-0.079002,0.35463,-0.053513,0.38006,0.12503,-0.30851,-0.33405,-0.20647,0.1251,0.0741,-0.053482,-0.25753,0.099528,0.048525,0.12509,-0.15547,0.43105,0.66056,0.43118,-0.86967,-0.25746,-0.38505,0.30361,0.58418,0.78827,0.2781,-0.58914,-0.89519,-0.64015,-0.48711,-0.18101,0.023005,-0.053495,0.17607,0.63521,0.25261,-0.002454,0.048555,0.25264,0.96682,0.048555,-0.38509,-0.35957,-0.41062,-0.13007,-0.79313,1.4259,-0.053506,-0.61461,-0.56359,-0.20652,0.023047,0.27809,0.38014,0.22707,-0.15551,0.048536,-0.002443,0.40565,0.17611,-0.48713,0.27809,1.0178,-0.25753,-0.38508,-0.66565,-0.43609,-0.43605,-0.10446,0.048604,0.53314,0.20158,0.20156,-0.15549,0.27811,-0.10449,0.35464,-0.18101,0.96683,-0.33405,-0.89524,-0.71668,-0.25747,0.2015,0.86467,0.22713,-0.63998,-0.12998,0.3291,-0.078984,0.25257,-0.002497,-0.15553,0.25259,0.17609,0.89031,-0.61463,-0.61463,-0.30852,0.2271,0.023035,-0.25755,-0.4106,0.71173,0.17607,-0.46159,-0.10451,-0.027889,0.074038,0.023054,0.32908,0.20155,-0.10449,0.35465,-0.181,-0.35956,-0.23203,0.22708,0.15061,0.20158,-0.30855,-0.15553,-0.002485,-0.053506,-0.079014,-0.25753,0.12507,0.45672,0.40566,-0.25753,-0.51254,0.073989,0.60965,-0.58914,0.12507,-0.12998,-0.18101,-0.25751,-0.1045,0.32917,0.074051,0.35465,0.048518,-0.15553,0.78824,-0.18101,-0.48707,-0.30856,-0.079002,-0.30853,-0.02798,-0.181,0.73723,0.40565,-0.30856,-0.1045,0.15057,0.048561,-0.23203,0.048543,-0.2065,0.40565,-0.15551,0.20158,-0.51262,0.40561,0.48213,0.20158,-0.25753,-0.33402,-0.23199,-0.13,-0.30855,0.12504,0.58422,-0.10452,-0.33406,-0.18101,-0.35956,0.66074,0.27811,0.35464,0.12504,-0.07899,-0.23206,-0.46159,0.048531,-0.10449,0.76277,-0.15552,-0.07899,-0.5126,-0.25757,0.07402,0.35464,0.12508,0.09957,-0.002436,0.60973,-0.86969,-0.35959,-0.20653,0.25259,0.20158,0.074038,-0.0535,-0.76767,0.023054,0.63526,-0.46157,0.89021,0.22708,-0.078959,-0.18101,-0.86971,0.40566,-0.10447,-0.10449,0.17609,-0.4361,0.15054,-0.33405,-0.1045,0.50769,0.38013,-0.13,0.048543,0.023054,-0.15548,0.074044,-0.41057,0.35462,0.32914,0.48215,-0.002461,-0.053495,-0.64015,-0.41058,-0.35954,-0.33407,-0.027962,-0.053488,-0.10449,0.86466,0.3801,0.17612,0.099601,0.0741,0.4567,-0.05347,-0.30855,-0.23205,-0.13002,-0.10452,-0.053495,0.074051,0.45666,0.048555,-0.002461,-0.66565,-0.46159,0.17609,0.6607,0.17606,0.023035,-0.10449,0.30362,-0.053464,-0.23202,-0.15551,-0.28303,-0.25755,0.38017,0.55868,-0.28307,-0.002472,-0.15551,0.048555,-0.02798,-0.18103,-0.28306,0.4567,0.40561,0.27809,0.048518,-0.20658,-0.079002,-0.38502,0.35468,-0.33401,0.023035,0.048555,0.048531,0.53317,-0.10452,-0.15552,-0.15551,0.22708,-0.25753,-0.18102,0.40565,0.45669,-0.10452,0.12508,-0.13001,-0.30856,-0.10447,-0.053476,0.1251,-0.38505,-0.10453,-0.20654,0.2781,0.63519,0.048555,-0.02798,-0.13001,-0.10446,0.27812,0.12508,-0.18102,0.048518,-0.13003,-0.15553,0.074033,0.40568,-0.10449,0.12509,0.22706,-0.15555,-0.33404,0.20163,0.63522,-0.334,0.12501,-0.38511,-0.30856,-0.41056,-0.12999,0.074044,-0.002467,0.6097,0.048536,0.099546,-0.0535,-0.053458,-0.10449,-0.20651,0.15058,-0.002461,0.58422,0.35465,-0.20652,-0.10453,-0.43608,-0.51262,-0.23205,-0.15549,0.25261,0.71173,-0.1045,-0.35959,-0.18095,0.66067,-0.053544,0.3036,-0.35951,0.22715,0.074062,-0.61463,-0.13,0.074033,-0.027974,0.35461,0.45661,-0.15549,-0.078977,-0.181,0.023005,0.20158,-0.15553,-0.05347,-0.23199,-0.053488,0.15059,0.1761,0.15059,-0.25753,0.91581,-0.35957,-0.35959,0.17606,-0.20653,0.023017,-0.079002,-0.027956,0.09957,0.023054,-0.66554,0.20156,0.099521,-0.1555,0.074057,0.048549,0.32912,-0.232,0.12506,-0.078984,-0.18102,-0.12999,-0.18104,0.1506,0.074062,0.023017,0.15057,-0.18103,0.12507,0.074057,-0.10449,0.048549,-0.18099,-0.1045,0.25259,0.099608,-0.23205,0.023017,-0.053495,-0.33399,0.17606,0.12503,0.35464,-0.46157,-0.20652,-0.027969,0.81378,0.43115,-0.28305,-0.28306,-0.25754,-0.027969,0.17608,-0.02798,0.17605,0.046696,0.099503,0.15057,-0.20652,-0.002423,-0.15548,0.25256,0.25256,-0.385,-0.81852,-0.20646,-0.283,1.3491,0.30357,-0.79302,0.99227,0.17602,-0.002534,-1.2776,-0.9461,0.048555,0.4821,0.43106,0.45661,0.074038,-0.15548,-0.12996,-0.18098,0.63506,0.45656,-0.10447,-0.33401,-0.15548,-0.30851,0.074026,0.15055,0.55871,-0.10452,-0.25754,0.074038,0.17603,-0.25748,-0.56353,0.27809,1.7317,1.1961,-2.5781,0.45659,-0.25743,-0.002479,0.89008,0.63507,0.15055,-0.053464,-0.41054,-0.30851,-0.053439,-0.46155,1.3493,-0.30856,-0.23197,-0.18106,-0.61462,0.40571,0.45662,0.55864,-0.15552,0.30366,-0.002461,-0.4361,-0.74204,1.1706,0.83903,-1.4816,0.66058,0.9412,-0.33398,-0.48702,0.38016,0.38,0.71181,-1.3794,-0.46153,-0.02809,0.53299,-0.10461,-0.79328,1.3749,0.20152,0.022883,-0.9973,1.8855,-1.6858,0.96667,-0.71668,0.71188,-0.23202,1.8851,-0.56339,-2.5534,-1.4821,0.32913,-0.25793,1.5786,-0.94605,3.7722,-3.0114,0.50809,0.25254,-0.41033,0.40603,0.91528,2.8026,-1.4307,1.5278,-0.41071,1.5537,-2.655,-1.5073,0.22688,6.502,-0.43565,1.2216,-5.9198,-0.07976,-0.84387,-0.43539,4.3076,-2.5023,-1.0482,-3.0885,0.53334,4.8691,2.0633,1.885,-0.053464,-1.3798,-0.18089,-1.7368,-1.9407,0.6863,-0.79323,1.0687,-1.5586,-4.9001,1.7065,4.334,3.2114,-1.3289,-4.8233,2.5484,3.9767,-0.43607,0.22711,-4.4153,-1.6095,-0.25751,1.987,-1.2517,3.0074,3.109,-1.3794,0.55823,-1.9919,-2.5532,-0.053996,-0.64031,-1.2011,-1.9918,-0.48692,-0.4359,9.0264,-1.966,-2.0936,3.9257,-0.66574,0.48214,3.5686,2.5994,-1.533,-1.8137,-0.69137,-0.99734,-0.94627,1.7576,-1.4054,-3.3184,0.22719,1.0178,-0.53796,3.8744,-2.757,-1.2524,0.81376,-1.3034,0.58417,1.8851,0.12501,-0.79307,-2.7825,2.3693,3.9252,-1.303,-2.5784,1.0177,-0.2066,0.27811,-0.053427,-1.5837,1.3747,1.0175,2.1401,-0.74218,-2.9867,-0.79304,-1.6091,0.58426,1.8597,0.25257,1.7827,-1.992,-0.12994,-0.07907,-1.4054,-0.25757,-0.74222,4.2063,-0.30851,-1.7114,-1.0481,0.35438,2.0129,1.2219,-0.81868,-0.69137,1.0178,-0.58911,2.0126,1.1707,-2.6549,-0.69093,-0.23231,-0.89534,0.96688,-0.64003,-0.5637,0.73711,-0.15565,0.53311,2.1657,0.68617,-0.66562,-1.2267,-1.4053,-0.46152,1.5791,-0.92067,-0.43614,0.89027,0.60963,0.074044,-3.2419,0.99215,2.1656,-0.18103,0.43121,-0.66561,-0.053384,0.048482,-1.9407,1.6296,-0.74207,0.43118,1.7321,2.9565,-1.9155,0.63522,0.35461,-1.2778,-1.635,-1.1504,-0.76777,-0.53816,1.63,0.94136,-0.078972,2.2165,-1.0735,-1.3032,-0.71668,0.15052,0.63515,0.63512,1.5534,-0.71662,-1.1502,1.2984,-1.9156,-0.079008,3.8236,1.9616,-0.81865,-2.0175,0.58425,-0.86971,1.5535,-1.0738,-0.51258,-2.043,-0.7678,0.32907,1.0688,2.0891,-1.5074,2.3953,2.0382,-0.5126,-1.2778,-0.74218,-0.48717,0.66067,-0.66566,-0.38506,-0.58904,2.7522,-0.46137,-0.94627,0.38009,0.91568,-0.02798,-0.33404,0.12516,-0.9207,-1.1503,-1.3289,3.1095,1.1964,0.176,0.78816,-2.3234,-2.0939,1.3748,-0.51272,0.023017,2.4207,-0.028042,-0.35956,-0.9717,0.1506,0.17611,0.074111,1.0689,0.7883,-0.35948,-0.53824,-2.0176,0.73731,-0.30853,2.5228,-0.76774,-0.079008,0.40564,-1.0993,-0.7167,0.074075,-0.12995,2.3697,-0.76763,0.20156,-0.46169,-0.15553,0.53318,0.35466,-0.30856,0.30363,-0.51263,1.477,-1.3288,-0.35953,-0.23204,0.30357,0.30349,2.0126,-1.737,-0.92063,0.99239,0.048567,1.0943,-0.61467,0.073989,0.73723,-1.0738,-0.58913,-0.76772,0.55871,1.5535,0.09954,0.48219,-0.33404,-0.15554,0.27803,2.7014,-0.58909,-1.1757,-1.5839,-1.5074,0.94133,-0.6656,0.71159,0.63505,0.048573,-0.56361,-0.15546,0.3546,1.3239,0.38022,-0.79314,-0.23199,0.099559,0.4566,-0.33413,-0.46164,-0.8187,-0.28306,-0.46162,2.4208,0.32914,-0.79327,0.45669,2.3698,-0.8442,0.12509,-0.94626,-1.2014,1.1964,-0.23204,-0.99727,1.375,-0.86973,-0.079008,1.2729,-0.38511,-0.81871,1.2475,-0.002418,-0.53811,-0.71668,0.22708,1.3239,-0.97179,-0.13001,0.15059,-0.078977,1.171,-1.9411,1.3494,1.3239,-0.86975,-1.9666,-0.33405,2.4974,-0.30851,0.53319,-0.92075,-0.81868,-1.482,0.99216,1.8851,0.43116,-0.20652,-0.15549,0.12508,-0.5636,-1.1758,1.5535,-0.41055,-0.66565,-0.48713,2.0637,1.1708,-0.35955,1.4514,-0.64026,-1.3544,0.074093,-0.9717,-0.84422,-1.2013,-0.027962,0.5077,0.35462,0.7883,-0.33408,0.45666,-0.15553,1.1454,-0.8187,1.0178,0.58421,-0.43615,-0.46161,-0.38503,-0.38508,1.9872,-0.58901,-1.4054,-1.2269,-0.74222,0.7117,0.048561,0.38013,-0.181,-0.28298,-0.9717,0.20161,1.8341,1.579,-0.97166,-0.20667,1.63,0.76279,-2.3236,-0.30849,-1.3287,-0.51263,-0.35961,0.38014,0.53317,-0.053482,-0.46164,-0.15554,0.12507,0.63524,1.5535,1.2984,-1.1248,-0.81875,-0.66565,-0.43607,-1.1249,0.71166,0.17607,0.074111,-0.35959,2.1147,0.43115,0.78832,-0.38508,0.099637,0.68626,-0.9973,-1.0738,-0.33409,0.6607,-0.002467,-0.35957,-0.79318,0.048567,1.63,-0.74205,-0.8443,1.2983,-1.5074,0.76282,-0.69115,-0.053446,-0.053549,-0.0535,0.91581,-1.0228,-1.3799,-0.23204,5.3796,-1.3543,-1.4309,-0.43606,-0.56364,0.27812,-0.053482,-0.51265,1.1709,0.66072,-0.74218,1.6045,1.8851,-0.94618,-0.86967,-1.2013,-1.3033,0.3036,0.89029,0.27809,0.023047,-0.46162,-0.002443,0.3801,-0.23209,-0.027864,-0.92079,0.048518,2.3443,-0.30852,1.3495,-0.79321,-1.941,1.477,-0.84424,-0.66569,1.9361,-0.28303,-0.74217,-0.86972,-0.25757,0.17612,0.50771,-0.02798,-0.002516,0.45664,1.0944,0.40566,-0.28303,-0.7422,-1.0483,-1.0738,-0.10446,3.2625,0.53318,0.48218,-1.3288,0.17606,-0.8442,-1.1757,-0.84428,0.099515,0.94129,0.17611,-0.43607,-0.58912,3.6451,0.7627,-1.3544,-1.2779,-0.027907,-0.92072,-0.46161,-0.05347,-0.1555,-0.38504,1.0688,0.3546,-0.30862,-0.18102,-1.0483,1.6301,0.32918,0.17609,1.0434,-0.48708,-1.788,-0.38509,-0.30858,-0.18104,-0.61467,0.4312,-0.078984,0.1761,-0.002467,0.50766,-0.43612,0.89032,0.17604,0.73726,0.12509,-1.2268,0.20162,1.834,-0.56362,-1.3288,-0.76773,-0.30861,2.0892,-0.46165,0.25265,-0.053482,-0.15546,-0.92073,-1.2524,0.6607,2.5228,-0.33409,-0.51262,-0.58914,-0.027913,0.7373,-0.35957,0.25257,-0.61465,0.76277,-0.94625,2.6758,-0.61471,-1.6605,0.17608,-0.86966,0.60977,0.63524,0.35463,-1.1758,-0.027969,-0.43609,-0.86977,-0.3851,1.0688,1.732,-0.51262,-0.58908,0.074051,-0.25755,0.60971,0.38005,0.66069,-1.2523,-0.74216,-0.23199,2.4973,-0.2575,0.7883,-0.79315,-0.86972,-0.58921,-0.10458,-0.41058,-0.1045,-0.079002,0.68625,0.32913,0.023047,0.94134,0.27809,-0.02798,-1.7625,-0.7422,1.1199,-1.0737,2.4208,0.0741,-0.20653,-0.69119,-0.58919,-0.35959,-0.43609,-1.6095,0.17604,1.4005,2.1402,-0.97172,-0.12998,-0.07899,0.78826,-0.9718,-0.23204,-0.71668,0.8393,0.6863,-0.25753,-0.25754,1.477,-0.76775,-1.4053,0.40566,-0.97179,1.4514,-0.027944,0.86481,0.12514,-0.92075,-0.51262,0.83926,-0.35959,0.25258,-0.4616,-0.30854,-0.002467,-1.0482,1.3495,1.8341,-0.33408,-1.9665,2.5993,0.68624,-0.10452,-1.5075,-1.1248,-0.81873,0.1251,1.1964,-0.12999,-0.64014,1.3494,0.27808,1.1199,-0.41061,-1.0483,0.53321,0.38013,0.074069,-0.46162,-0.69118,0.50766,-1.0738,2.9309,-0.94623,-1.0738,-1.1504,3.7472,-0.46155,-1.7625,-1.0738,0.27812,-0.13002,-0.4106,1.2474,0.5332,-0.20657,1.2219,0.60972,-1.0993,-1.2013,0.48218,0.71171,0.20155,-1.2779,-0.027969,0.45671,-0.002436,0.20163,0.20162,2.0637,-0.81874,0.35461,-0.89526,-0.51263,-0.64017,-0.38511,-0.41055,0.12513,2.1147,0.40566,-0.25756,-0.5126,-1.4564,0.50768,-0.89524,0.60971,2.2678,-0.71669,-0.76769,-0.58912,-0.92072,0.022986,0.25256,-0.079039,-0.25759,0.4312,-0.30851,0.66077,-0.41061,-0.23202,0.68624,1.6555,0.30361,-0.99725,-1.0228,-0.79316,-0.25754,-0.20656,0.53318,-0.0535,0.20162,0.43117,0.12507,-0.15556,1.0179,-0.61463,-0.10449,-0.9973,-0.2065,-0.028005,-0.078984,0.12505,0.55873,0.2781,-0.053439,0.48219,0.17612,-0.84422,-0.84422,1.1964,0.91572,0.40561,-0.79325,-0.99723,-0.71666,-0.3595,-0.71664,0.53323,-0.30854,-0.41051,0.50766,0.58413,0.15052,-1.2523,0.94129,1.2984,0.66074,-0.43607,-0.5636,-0.76768,-0.33409,-0.38511,1.1709,-1.1503,0.30362,0.76276,0.048561,-0.23204,-0.15554,-0.41061,-0.48713,0.17609,0.1506,-0.027944,-0.053446,0.15059,0.83931,0.02301,-0.48708,1.8596,-0.71668,0.15059,-0.58919,-1.0228,-0.64018,-0.84424,-0.8442,2.2677,0.48217,0.20166,0.15054,0.048543,-0.51265,-0.94624,-0.25753,0.63523,0.55876,-0.92073,2.3953,-0.25759,-0.79323,-0.53813,-0.74221,-0.13,-0.64014,0.20155,0.15054,0.099583,0.50767,-0.76768,1.1199,-0.71665,3.1605,-0.3851,-0.43612,-0.74219,0.12509,-1.5584,-0.43608,-0.28309,1.0178,-0.20653,0.27814,0.45666,0.76275,0.1506,-0.7932,0.074062,0.22711,0.43113,-0.23204,-0.20651,-0.48711,-0.38506,0.27811,0.22711,1.1199,-0.38508,-0.56364,0.099564,0.2781,-0.56367,-0.53814,0.20161,-0.41058,0.12514,-0.4361,1.63,1.0433,0.43118,-0.5891,-0.41057,-1.1758,-0.7167,0.30361,-0.33409,0.43117,0.55871,0.048536,-0.35954,0.3291,2.3442,0.20157,-0.81874,-0.64017,-0.66563,-0.35948,0.66075,-0.53819,0.73719,-0.53818,-0.86973,-0.4871,0.074106,0.3291,-0.053495,0.048536,0.35468,0.30368,0.099644,0.048573,0.63522,0.86474,-0.86979,-0.28307,-0.58915,-0.33404,-0.002485,-0.18101,-0.18097,-0.76764,0.83925,1.6299,-0.41064,-0.53807,-0.10446,-0.41055,-0.53807,-0.33407,0.81378,-0.027974,0.17607,1.4259,-0.89526,-1.6095,-0.46161,0.81378,0.8648,0.2271,-0.35957,-0.23202,0.60968,-0.41056,-0.28303,-0.76772,1.7066,-0.10453,-0.23203,-0.079002,-0.84421,-1.1503,-0.53814,-0.46161,1.1709,2.1912,-0.23201,-0.69117,-0.1555,-0.002485,-1.5074,-0.35954,3.2115,1.3239,-0.35956,-1.0483,-0.53815,-0.56362,-0.51263,0.9923,-0.81872,-0.76772,1.8085,1.0944,-0.86967,-1.8899,0.4822,0.35465,-0.20654,1.2219,-0.18103,-0.28303,-0.23204,-0.43611,-1.0228,1.2219,1.2219,1.8341,-0.48711,-1.2268,-0.89523,0.99232,-0.79324,-0.30856,-0.8187,0.17609,1.1709,0.048561,0.22709,-0.002516,-0.46161,0.27807,-0.48713,-0.41057,0.86485,2.1402,-0.41057,-1.0993,-1.4309,-0.20652,3.4155,-1.7881,-0.35957,-0.61467,-0.56364,0.023035,-0.20647,-0.13001,0.60976,0.22712,-0.48711,0.5587,-0.53814,-0.43613,1.477,-0.43612,0.81378,-0.48711,0.53321,0.25263,0.099608,-1.4054,-0.053495,-0.20655,1.1964,-0.64018,-0.58916,-0.25753,0.074081,0.32917,-0.38507,0.66072,0.17606,0.53318,0.15059,-0.30854,-0.25754,-0.20652,0.17607,0.35463,1.1964,-0.38509,-0.18103,-1.2014,0.023065,0.68622,-0.99725,0.81379,-0.71667,-0.10446,-0.18099,-0.56358,0.3546,0.048531,-0.20657,0.25258,0.53316,0.074038,0.38019,0.15055,0.2016,-0.181,-0.38508,-0.15549,0.94131,0.17606,-0.58914,0.17612,-0.69117,-0.41057,0.68625,-0.25754,-0.23207,0.91579,-0.28306,0.15054,-0.079014,-0.20648,-0.43607,0.074075,0.12505,-0.76773,0.43115,0.60968,-0.99727,1.5535,-0.20649,-0.94625,0.71181,0.20161,-0.43609,-0.28308,0.25257,0.07402,0.96681,0.074062,0.048561,-0.69119,-0.12999,-0.027956,-0.028005,-0.64018,0.20159,1.2729,-0.053458,-0.1555,-0.20651,-0.51259,0.30364,-0.12999,0.63521,-0.23208,-1.2013,2.8289,-0.30853,-0.4616,-0.078972,-1.0483,-0.97174,-0.56366,1.5535,1.1199,0.53314,1.1709,-0.53812,-0.74215,-0.86969,-0.48708,0.22713,0.40563,0.25261,0.12506,-0.18105,0.074044,-0.30857,0.27814,-0.20654,-0.15548,-0.027987,0.43117,0.17609,-0.25753,0.27807,0.20157,0.78823,0.20158,0.43117,-1.0482,-0.94616,-0.86965,0.3291,-0.1811,0.7882,-0.18106,-0.4871,1.3239,0.12509,-0.25753,-0.078972,-0.10446,-0.25754,-0.33406,-0.0535,0.022998,0.43114,1.0688,0.27815,0.17611,-1.4054,0.53321,-0.4871,0.89029,0.25259,-0.84425,-0.15553,-0.02798,-0.30852,-0.20649,0.32915,0.38013,-0.30859,-0.002472,1.2219,0.83929,-0.89526,-0.18105,0.20161,0.38014,-0.25751,-1.7114,-0.84417,0.17609,2.2676,-0.99727,-0.46163,-0.10453,0.15059,0.40569,0.1251,0.40566,-0.13001,-0.46162,0.43113,0.48217,0.50769,-0.64012,-0.97172,-0.30856,-0.61465,0.07402,-0.13004,0.89025,-0.10451,0.38014,0.60973,0.074087,-1.0993,-1.3288,0.50768,0.81379,0.60972,0.68619,-1.1248,0.17607,0.2271,0.20161,0.22712,-0.94622,0.17609,0.20161,-0.84424,0.12505,0.99227,-0.6657,1.9871,-0.25753,-1.2268,-1.0992,0.32914,0.15057,-0.38506,0.22708,-0.33408,-0.053519,-0.13002,2.1912,0.074069,-0.4361,-0.35954,-0.66569,0.20163,0.76273,0.22708,-0.53814,-0.86974,-0.46157,0.048525,-0.18098,0.048549,0.68628,0.15058,1.0689,-0.35962,0.50767,-0.86972,-0.81871,-0.46159,0.89029,-0.28302,-0.053531,0.48218,-0.4616,0.30363,1.1454,-0.027993,0.38013,-0.2065,-0.18101,-0.43606,-0.53807,1.2474,0.023035,-0.61468,-0.028018,0.89026,-0.38511,0.99233,-0.94623,-0.71665,1.426,0.023065,-0.66569,0.22708,-0.76771,-0.053519,0.48219,0.15061,-0.66563,0.83933,0.12509,-0.18097,-0.2831,-0.028023,0.22708,0.22708,0.09954,-0.053451,-0.23201,0.38016,-0.20653,-0.20653,-0.15551,-0.002516,1.63,-0.38508,-0.71666,0.099588,1.426,-0.46159,-0.86974,-0.64016,0.023041,-0.3341,0.30362,0.22709,0.30364,-0.30854,0.09957,0.94131,0.20159,-0.46157,-0.35957,-0.74218,0.6607,-0.48711,-0.38511,1.8086,0.8903,-0.002454,0.074038,-1.5329,-0.81871,-0.43607,-0.10449,-0.053488,-0.43612,-0.25753,0.91584,1.4515,-0.12999,-0.56362,-0.20652,-0.15557,-0.53815,0.15057,0.48219,0.5332,-0.79321,-0.56362,0.68626,0.048525,0.12505,-0.25754,-0.18104,0.45669,0.023035,-0.43606,-0.25754,0.048573,-0.027993,0.68624,0.27808,-0.46159,0.40566,-0.15552,0.25262,-0.23202,-0.43608,0.35464,0.99232,1.2729,0.12505,-0.53813,-1.0738,-1.5329,-0.35958,0.35465,-0.25751,-0.5381,1.1709,0.60972,-0.079008,0.27808,-0.3086,-0.23203,0.9413,-0.1555,-0.078984,-0.46157,-0.33406,-0.33407,0.17606,0.60971,0.12507,-0.6912,-0.94624,0.68624,1.0434,-0.078972,-0.51261,-0.25754,-0.25757,-0.13001,-0.053519,-0.002467,-0.10449,0.73727,0.32915,0.55872,-0.18101,-0.002479,-0.10452,-0.18103,-0.23202,-0.28307,-0.20652,-0.20652,-0.23204,0.66074,-0.027987,0.35465,-0.25756,-0.027974,0.43117,0.074033,-0.002454,0.023029,-0.43609,-0.79319,0.4567,-0.30851,0.15056,-0.028005,0.81372,0.73724,0.45668,0.2526,-0.51258,-0.41057,0.15059,-0.71665,-0.23208,-0.002497,0.25259,0.099552,-0.41055,0.17611,0.50771,-0.10445,-0.43609,0.66074,-0.61467,-0.71673,-0.38508,-0.23203,0.96683,0.35465,-0.20653,-0.25753,0.45666,0.30361,-0.30856,0.023023,0.25263,-0.33407,0.023023,-0.74214,-0.18102,2.5483,-0.25754,-0.53816,-0.46162,-0.61464,-0.15553,-0.58915,0.73727,0.94132,-0.46159,-0.20651,-0.66567,-0.38508,0.048518,1.2729,-0.46159,0.27812,0.2781,-0.69122,0.45668,-0.053482,-0.58914,0.25263,-0.002503,-0.002461,-0.053482,0.25265,0.63525,-0.28303,0.048585,-0.56365,0.099552,-0.18105,-0.028018,-0.48714,0.074062,0.3802,-0.43609,0.43119,0.43114,-0.15554,0.023029,0.55871,-0.12998,0.2271,0.32912,-0.89526,-0.43612,-0.078959,-0.48711,-0.053464,0.5587,0.45666,-0.15553,0.40566,0.12504,-0.41058,-0.181,-0.58914,0.38019,-0.23204,0.25262,-0.23207,0.53318,0.4567,0.074033,-0.35956,-0.7422,0.43116,0.099552,-0.35956,-0.46157,1.0944,-1.0993,0.5842,-0.4361,2.0382,-0.51262,-0.5381,-0.69117,-0.46162,-0.56361,-0.10452,0.48218,0.45666,0.66075,0.25258,-0.10449,-0.76767,0.55873,-0.20654,-0.25755,-0.027987,-0.23202,0.074087,-0.078984,-0.15555,-0.35958,0.074038,0.2526,-0.33406,-0.05347,0.73731,0.17607,0.66076,-0.33407,0.12507,-0.64018,-0.51258,-0.23203,-0.41058,-0.053513,0.45666,0.91579,0.074038,0.048555,-0.23202,1.0689,-0.28305,-0.12998,-0.4616,0.074051,-0.078996,-0.33409,-0.25751,-0.079008,1.0179,-0.002497,-0.76769,0.96685,-0.027944,-0.81867,-0.56361,0.53316,-0.079039,-0.3341,0.40566,-0.028005,-0.35954,-0.053451,0.074062,0.30361,0.35465,0.074057,-0.18103,-0.078972,0.15057,0.17611,-0.027993,-0.23202,-0.81873,0.17611,1.0689,-0.48713,-0.99727,1.0434,-0.20649,-0.30856,-0.181,-0.43614,-0.48713,-0.23203,-0.10449,-0.078977,0.50767,1.375,0.43117,-0.053451,-0.28302,-0.181,-0.079014,-0.15556,-0.10451,0.78824,0.43117,-0.28307,-0.027944,-0.71666,-0.66562,0.73727,-0.23205,0.86481,-0.23205,0.15057,-0.20657,-0.23205,-0.13001,-0.10451,-0.35957,-0.28303,0.20164,1.0178,0.2781,0.40564,-0.33409,0.25261,-0.30857,-0.92072,-0.10449,-0.46161,0.22712,1.1199,0.48219,-0.43609,-0.5126,0.074026,-0.053525,0.71173,-0.61465,-0.25752,-0.38508,-0.02795,0.35464,-0.002491,-0.35957,-0.20654,-0.1045,-0.23203,-0.15551,-0.20647,0.048555,-0.28307,0.38014,0.3801,0.45667,0.12505,0.15057,0.023065,-0.28306,0.4567,0.15059,-0.25753,-0.76767,-0.97177,-0.13004,0.38011,0.48216,0.38014,-0.35959,-0.46157,-0.053482,0.58422,0.15059,-0.58916,-0.20654,0.58419,0.45669,0.023041,0.94137,-0.23201,-0.079008,-0.71669,-0.13005,0.09954,-0.10448,0.048543,-0.41057,-0.4871,0.023072,-0.13001,-0.71666,0.45667,1.9871,0.17605,-0.61464,-0.20655,-0.76771,-0.10447,0.099564,0.17609,-0.23207,-0.38507,0.68626,-0.4871,0.81378,-0.079021,0.38013,-0.30855,-0.027993,-0.15549,0.32914,1.0944,-0.23201,-0.53812,-0.48712,-0.81873,2.1657,-0.10449,-0.64012,-0.48713,0.30361,0.50766,0.38016,0.048518,-0.56362,-0.15554,-0.15548,0.074044,-0.30854,-0.12999,0.099588,0.94131,-0.23207,-0.33404,-0.51265,0.89034,1.0944,-0.18099,-0.3851,-0.13007,-0.51263,-0.028005,0.023054,-0.18105,-0.23201,-0.027987,-0.4871,0.83928,1.3495,-0.56364,-0.23202,-0.61465,-0.48712,0.35462,-0.13001,-0.053519,0.048543,0.099583,0.20162,-0.002461,-0.58911,0.15057,-0.30857,1.1964,-0.20657,0.20159,-0.64012,-0.51257,-0.33409,0.023047,0.048531,0.45667,0.09954,-0.027987,-0.41059,1.1199,0.58424,0.45669,-0.53813,-0.8442,-0.56362,-0.8187,-0.33409,0.40567,0.2526,-0.33406,-0.56364,2.3953,0.91582,-0.5126,-0.43611,-0.48712,-0.027974,-0.13004,-0.48711,-0.078977,0.22707,-0.028005,1.0433,-0.027944,-0.74217,-0.18103,1.2729,-0.28306,-0.002443,-0.20652,-0.25753,-0.33408,0.66076,-0.74217,-0.89524,0.38014,0.35461,-0.28305,0.2526,-0.20655
-1.4819,2.6504,-0.81871,-0.23191,1.1198,-1.3034,0.99232,-0.64009,-0.97172,-0.43604,-0.13002,0.12505,0.38016,-0.2065,0.22707,0.48217,0.81373,0.25263,-0.94627,-0.2065,-0.002472,0.55872,0.55872,-0.23206,0.099564,0.5332,-0.76771,0.81377,0.074069,-1.4054,-0.028018,-1.0482,1.2985,0.91578,-0.15559,-0.69116,-2.0428,0.66065,1.1708,1.783,-0.12998,0.22701,-0.33405,-0.71666,-1.1248,-0.25752,0.074075,1.1709,0.63523,-0.48714,-0.13002,-0.23201,0.3291,-0.078977,-0.28306,0.099588,1.0688,0.58419,-0.28306,-0.81873,-0.35957,-0.51257,-0.4616,0.50762,1.1964,0.17612,-0.41065,-0.74217,-0.15556,-0.92063,0.63526,0.27808,-0.84413,1.1963,0.20161,0.17602,0.023041,-0.33404,-0.35954,0.2271,0.40568,-0.23205,-0.20653,-0.12999,-0.18101,0.20159,-0.002454,0.12505,-0.43611,0.40563,-0.4616,1.0434,0.099583,-0.38505,0.48219,0.023059,-0.66573,-0.002485,-0.64015,-0.25754,0.17609,0.048573,1.1454,-0.43609,-0.4871,-0.002461,0.048555,-0.05347,-0.74223,2.0125,-0.56351,-0.46155,0.76269,-0.81869,-0.18103,0.074038,-0.20652,0.074038,0.45664,0.023065,0.023047,-0.25754,-0.15548,-0.20654,0.17609,-0.18098,0.30366,0.38008,0.73725,0.40561,-0.20672,-1.2266,-0.078977,1.2729,-0.1555,-0.23209,-0.002485,-0.20653,-0.13001,0.023035,0.023029,0.099552,-0.002436,0.023047,0.12506,0.2526,0.20159,0.48216,0.32915,-0.41061,-0.53811,-0.027969,-0.18101,0.20161,-0.33406,0.278,-0.48696,0.048585,0.40554,0.38013,-0.38508,0.25263,-0.078977,0.099564,-0.58911,0.55875,0.12507,0.43117,0.27803,-0.33408,-0.61465,-0.4871,-0.1555,0.1506,-0.1555,0.43117,0.22703,-0.92054,0.32907,0.60962,0.38013,0.20158,-0.20652,-0.46159,0.30364,-0.30854,0.94131,0.074033,-0.3851,0.048536,-0.41057,-0.41059,-0.43607,-0.078959,0.3291,-0.35957,-0.079008,-0.002454,-0.18101,0.86478,0.53314,1.0179,-0.30854,-0.51258,-0.35957,-0.23205,-0.20653,0.3545,-0.38495,-0.6146,1.3493,0.25256,0.66072,-0.078959,-0.53812,-0.53811,0.074075,-0.002467,0.099559,0.15056,0.099564,-0.23204,0.27812,0.38021,-0.51264,-0.23208,-0.2065,-0.002479,0.15061,0.38014,0.50762,-0.053488,-0.4616,0.15061,-0.12998,0.023047,-0.30853,-0.43612,0.76267,-0.18103,0.94135,-0.30855,-0.84421,-0.10448,0.074062,0.20161,-0.10451,-0.43612,0.96681,0.43113,-0.10449,-0.64015,-0.5126,0.43118,0.60973,0.023047,-0.15553,-0.20652,-0.33409,0.074069,1.0179,-0.53817,0.15059,-1.0993,0.99236,0.1506,-0.58918,-0.33407,-0.078959,0.63514,0.30362,-0.002443,-0.28303,-0.02792,0.099577,0.17609,-0.15553,0.40563,0.12507,-0.92076,1.2984,-1.839,0.78828,-0.71666,-0.1555,0.15057,0.35465,-0.23205,0.58409,-0.12995,-0.64005,0.50763,0.27814,0.2526,-0.61464,0.023047,0.25259,0.048555,0.2526,-0.13003,-0.18103,-0.33405,-0.181,-0.002454,-0.002479,0.074026,0.048561,0.25259,0.48219,0.074026,-0.079008,-0.002472,0.12507,-0.078959,-0.2575,-0.30853,-0.0535,0.12505,0.15057,1.0178,-0.66566,0.55867,-0.38506,-0.71666,0.099637,-0.58919,0.25253,0.53302,-1.2777,0.32921,0.3291,-0.25755,0.73711,0.55864,0.17617,-0.48694,0.45664,0.099491,-0.079021,-0.30856,-0.33404,-0.23201,-0.12998,-0.20649,0.099546,-0.002485,-0.02795,0.099528,0.074044,0.27807,-0.027962,0.099546,-0.078972,-0.25753,-0.4871,0.91579,0.30366,0.15057,0.78824,-0.81871,-0.13002,-0.38505,-0.4361,-0.02795,-0.23205,0.27815,-0.002443,-0.46165,-0.10459,0.023035,0.25263,0.30368,0.25262,0.43115,-0.691,0.12498,-0.99716,0.099552,1.3238,1.1198,-0.41063,-0.48708,-0.4361,-0.43606,-0.35954,-0.23196,-0.41052,0.43105,0.25256,0.15062,0.25257,0.023103,-0.20656,0.58417,0.023029,-0.3595,0.94137,-0.4871,-0.33413,-0.18106,0.17609,-0.38505,0.38016,-0.13002,-0.20655,0.25256,0.15056,-0.33407,0.074038,0.5587,0.73728,0.22711,-0.48706,-0.28303,-0.25753,-0.30854,-0.028011,0.30353,-0.48705,-0.20639,-0.027993,0.20153,0.30356,0.12504,-0.23202,-0.12997,-0.10448,0.27812,0.2781,0.2526,-0.25753,-0.25755,0.048458,-0.86948,0.09954,0.5841,0.15057,-0.002503,-0.89522,2.0126,0.48219,-1.6348,-0.38516,0.30346,-0.58908,-0.15548,0.2781,-0.61449,0.27812,0.38003,0.48223,-0.56329,1.1196,0.941,-0.15555,-0.48699,-0.69108,-0.33401,0.22715,0.32912,-0.25754,1.4,-2.8842,-1.2266,2.0632,1.6551,-0.20646,-0.61451,-0.25748,0.55856,0.66063,-0.35949,0.023059,-0.79301,-1.0225,0.25254,-0.02798,0.17602,0.20153,0.50762,0.99225,-0.053513,-1.1502,-0.92054,1.8337,-0.078788,-0.92054,-0.028133,-0.86966,0.27799,1.6043,0.78829,-1.6857,-0.43603,-1.1502,0.023065,0.074136,1.3494,0.91572,-0.48696,-1.8899,0.1502,-0.20668,0.94129,0.32908,0.48226,0.023103,-0.002423,-2.6551,0.43126,-0.53817,1.0688,0.37994,0.96699,1.7064,-1.584,-3.0122,-1.5074,-0.15551,1.9872,3.0074,0.45656,-2.4004,-4.2368,2.9822,4.4615,2.6501,-0.53818,-0.5381,-5.0272,-0.81891,-0.79332,-0.99732,-1.3544,-0.41056,-5.3336,3.9512,13.312,6.1961,0.50773,-5.0268,-5.4613,-3.0892,-1.4308,-2.9869,-2.5278,3.9764,2.14,-0.66562,0.48238,1.0434,2.3699,-0.28295,-1.7114,-3.1654,2.3695,8.7469,-2.9614,3.3134,-2.1707,-5.5122,-3.3695,0.66062,-1.686,0.45678,0.20171,1.9362,2.5992,3.3903,0.55896,4.5121,-3.9818,-3.8033,-6.4303,-1.5325,2.0381,-0.79307,0.45689,1.6807,2.9815,2.9817,-0.12987,0.99245,-2.5022,-0.12993,0.96704,0.30365,2.9819,-0.41061,-2.6552,1.3746,-3.0886,-1.7625,1.0942,-1.0225,-0.41061,-1.0738,-0.053727,0.73711,-3.14,2.7268,3.8236,1.9362,-0.97167,-2.6552,2.0892,-0.51255,-3.446,-1.0482,0.48216,1.9105,-3.293,0.73721,3.1095,0.023047,0.55867,0.176,-1.5328,-0.4108,-0.53809,0.83945,0.45659,0.17624,1.0687,-0.81874,-0.30861,-0.002521,0.12512,-0.51262,-0.51266,1.4005,-1.4564,-0.89527,5.1244,-0.48705,-3.4965,0.25236,1.1962,-0.028219,-2.7826,-0.94619,0.25245,-0.30858,3.8237,0.3547,-0.53809,-1.2779,1.4514,2.2932,-0.94622,-3.446,-2.6552,1.7831,2.6504,-0.18117,2.9309,-1.2269,-1.4309,-1.6859,-2.3238,-0.71662,1.018,-0.66572,0.17588,0.074038,5.6602,-0.078966,-0.027913,0.048555,-0.30866,-1.4561,1.3492,-0.43619,-0.99716,-0.48702,-1.0993,-0.35953,0.048561,1.4514,-2.9359,-0.61467,2.5993,3.0585,2.8035,-2.9869,-0.48717,-2.2472,2.0382,-1.9155,0.63526,-1.0482,0.45669,-0.81867,-0.13005,0.30361,-0.18103,0.96677,3.4665,0.35465,-0.92073,1.1963,-1.3797,-2.7317,2.9308,-0.69125,-0.053537,-0.23207,-0.18108,0.15058,-0.74217,-0.71661,0.76281,2.1147,-0.10457,-0.4873,-2.7059,3.9511,0.60964,-0.1046,-1.5839,-0.5125,-0.25743,0.55861,-1.8135,0.81371,1.3494,0.83919,0.22708,-0.43607,0.7628,-0.48711,4.0533,-1.4563,-1.992,-1.2778,-0.92076,0.30358,-2.0176,0.32914,4.5889,-0.61469,1.5025,-0.18101,0.12506,-0.35964,-0.7167,-0.002405,-0.41058,-0.053495,0.7628,-0.15548,-0.35953,-0.43612,1.9617,-1.0738,-1.0738,1.2219,0.38017,-0.56367,1.2474,-0.64009,-0.20655,-1.2269,-0.89518,-0.079063,2.5737,-0.69113,2.9055,0.94137,-2.4257,-1.1758,-0.69122,-0.97175,-1.8645,4.0277,1.8341,-0.79324,-0.15553,-0.58918,-0.69116,-1.1502,1.2474,3.1606,-0.35965,-1.2269,-1.0993,0.074111,-0.002423,0.023054,-0.94629,-0.94632,0.38011,0.048567,1.4515,0.81379,-0.92076,0.023054,-0.89524,-1.941,0.32912,5.0225,0.023054,-0.64015,0.7373,-3.1399,-1.1758,-0.9718,0.25261,0.099491,-0.76771,1.3749,1.528,-1.0993,0.048573,1.1199,-0.053439,-0.15554,-0.81867,0.27813,-0.13006,-0.15551,0.86481,0.20153,-0.13002,0.12506,-0.13002,-0.64014,-2.1706,0.50768,1.6811,-1.1504,0.30353,-1.0227,2.3953,-1.0738,1.2985,-1.1248,-0.86977,-0.10452,-0.46157,-0.7422,1.0178,1.0434,0.048518,-0.15553,0.35464,1.528,0.22709,-2.1451,-0.46162,0.76272,0.27813,-1.89,1.528,0.45671,0.60971,0.76273,-1.8135,-0.84424,-1.2524,0.12512,0.074026,0.83928,2.1912,-0.30858,-0.12999,-0.46162,-0.7167,0.099564,-0.48713,-0.53817,2.2167,-0.283,-1.5839,2.5228,-0.79316,-1.0993,0.66072,-1.0739,-0.58916,-0.079051,1.8595,0.27808,-0.74216,0.048549,-0.053451,-0.61464,-1.3544,-0.4871,0.09957,4.2318,0.78827,-1.3799,-0.18103,-0.25748,-1.0483,-0.56361,-0.43612,0.50764,-0.58911,0.17612,0.86477,0.023005,0.5332,-0.002418,-0.51266,0.50773,-0.6912,-0.81869,0.32912,-0.33405,0.22712,0.68629,-0.10446,-0.48711,-0.58914,1.1964,1.579,-1.8135,0.099577,2.4208,-1.6604,-0.94626,1.0944,-1.2779,0.55867,-0.5636,2.2167,-0.10449,-0.5126,-0.18101,-0.13001,0.40571,1.4005,-0.5126,-1.1759,0.43116,-1.0483,-0.51264,-0.027969,0.73723,-1.0483,0.12506,2.0126,1.1199,-0.41056,-0.97176,-0.43615,0.32909,-0.84422,0.4822,-0.43607,1.9106,-0.64013,-0.33409,-0.81873,-0.28308,0.099552,-0.4106,0.074081,0.25261,0.1761,-1.4309,-0.61458,0.91586,0.66067,0.83925,0.27809,-0.079033,-1.0483,-0.23201,-1.7115,0.99232,1.579,1.8851,-0.10452,-0.92068,-1.0738,0.45661,-0.71673,-0.51261,0.58422,-0.18098,-0.38506,-0.74218,0.30363,1.5535,-0.28314,0.71175,0.96681,-0.33408,-0.30854,-1.6604,-0.25751,1.4769,0.83932,0.50768,-1.941,-0.61466,-0.079002,-0.20655,1.0688,0.73728,-0.69116,-0.027962,-0.84425,0.78828,-0.53814,-0.66571,1.6301,0.09957,0.73729,-0.8442,-0.9718,-0.20657,0.27814,-0.69117,-0.002461,-1.1248,-0.43614,3.4411,-0.25755,0.89036,-0.283,-0.53812,-0.28306,-0.58916,0.6607,-2.0941,1.0178,0.15057,-0.84423,1.5024,-0.12998,0.3547,-0.66561,-0.12999,-0.66571,-0.027993,-0.33411,1.2984,-0.33407,0.53321,-0.69111,0.27812,0.66072,0.023017,-0.51262,-0.64012,-1.5329,0.45667,3.7216,0.32913,-1.482,-0.38512,-1.3034,-0.81871,-0.43607,0.43112,1.63,-0.4616,-0.4871,-0.56361,0.32915,0.1506,1.9617,-1.5074,0.73722,-1.2013,-0.81871,-0.84423,0.12506,0.58418,0.22711,0.53317,-0.79319,0.8648,-0.053451,0.66077,-0.30853,-1.3289,0.48214,2.4718,-0.028023,-1.2779,-0.4871,-0.66562,1.8597,-1.0738,1.579,-1.5585,0.35459,-0.97174,-1.635,1.2985,-0.13,0.68629,1.3494,-0.15553,0.099528,-0.58916,-0.66569,-0.33405,-0.33399,-0.078966,2.1146,-0.33407,-0.51267,-0.41063,-0.76771,1.9871,0.15059,-1.0482,-0.48707,1.0434,-2.2216,3.5941,-0.028047,-1.9156,-0.7677,-0.28305,0.048549,0.48216,-0.10449,-0.5636,0.12504,0.074087,1.0944,-0.71668,-1.1248,1.7066,-0.18101,-0.079026,-0.18103,-0.5637,0.38013,-0.58914,0.91584,-0.7932,-0.25755,-0.4871,-1.1758,0.63519,0.60974,0.27812,-0.8442,-0.38509,-0.94622,4.8695,0.15059,-1.5329,-0.99727,0.32911,-0.053531,-0.43612,-0.30855,0.73723,0.83928,-0.48713,-0.41057,-0.53809,-0.027956,0.55869,0.35465,-0.027969,1.0179,-0.46164,1.1964,-0.25756,-0.97174,-0.35956,-0.7677,0.17607,-0.69115,-0.181,0.68624,0.30361,0.66078,0.32913,0.68624,-0.58918,-0.58915,-0.64015,-0.97174,-0.7932,1.8596,2.7013,-1.5074,-1.2524,0.40566,-2.2216,1.0178,1.1199,-0.12995,-0.74217,0.43115,-0.20658,0.48218,-0.94622,-0.43602,0.5587,-0.35965,-0.66572,1.4259,-0.56366,1.0434,-0.078977,-0.43609,1.1199,-0.33405,-0.5381,-0.99721,-0.027956,-1.5329,1.7831,0.71175,0.50766,-0.33409,-0.64019,-0.079008,-0.38509,0.35464,0.4822,-0.027962,-0.81868,-0.3851,2.2167,-0.33407,-1.4564,1.0688,-0.053476,-1.3033,-0.053439,-0.53814,1.2729,-0.81871,1.0688,0.099595,0.60968,-0.25753,1.2219,-1.0228,0.71173,-0.69117,-0.64014,0.023047,-0.53814,-0.027969,1.6555,0.48216,-0.86969,-0.10451,-0.94622,-1.0738,0.76278,1.3239,0.3036,-0.66569,-0.28307,0.68622,-0.56365,-0.12999,-0.43607,0.91587,0.32917,0.12509,0.89026,0.45659,-1.3799,-0.53816,-0.69115,1.477,-0.89519,-0.5891,-0.20649,0.35461,0.12505,-0.00251,-0.13005,-0.33406,-0.41059,0.89038,0.40572,0.25263,-0.66565,0.023023,1.3749,0.53316,-0.3851,-0.12999,-1.0228,-0.18101,-1.0738,-1.737,2.5483,-0.002454,0.94131,-1.1758,0.48217,-0.61466,-0.92078,-0.10452,0.63527,0.76279,0.81385,-0.3851,-0.53812,-0.41063,1.0433,0.50765,0.5077,-0.10453,-0.28301,-1.2268,0.45669,-0.13003,0.32917,-0.053476,0.20161,-0.48714,1.0944,-0.46159,-0.51266,-0.69116,0.81378,-0.61468,1.1199,-0.51265,0.32912,0.048536,-0.5126,0.76282,-0.35952,-2.0685,-1.0993,1.0943,2.3187,0.17601,0.20158,-1.0228,-0.86971,-0.43606,0.68627,-0.61463,-0.38507,0.45669,0.55869,0.2271,-0.25757,0.09954,0.58422,-0.35954,0.35467,0.66068,0.2781,-1.0738,0.32913,-0.64014,-0.28305,0.78827,-0.002485,-1.3544,0.53318,1.0689,1.324,-0.46158,-0.69118,0.022986,-1.1759,0.58419,-1.1503,-0.99724,-0.12999,0.35465,0.89032,2.2423,-0.5126,-0.20656,-0.10452,-0.15557,-0.76771,-0.79319,0.60974,1.4005,-0.61469,0.60971,0.09954,-1.4309,-0.53817,0.32915,-1.0483,0.55873,-0.23199,-0.027987,-0.35954,1.0178,-0.027993,-0.35959,-0.33409,-0.053513,-0.10449,0.099564,0.71175,0.30363,-0.20653,-0.53813,-0.002448,-0.23203,0.73726,1.1708,-0.46163,-0.18101,0.27815,-0.35953,-0.48708,0.45668,-0.48716,-0.43611,0.22707,0.25257,-0.69121,-0.23202,1.1454,-0.20647,-0.10445,0.48221,-0.053537,-0.027993,-0.13004,-0.30856,-0.28306,-0.13,-0.25753,-0.33404,0.91586,0.5842,0.63521,-0.66569,0.73723,-0.23202,-0.25753,-0.10449,-1.2779,-0.35959,0.86478,-0.46164,-0.43607,0.89029,0.48218,-0.5381,0.4822,-0.66566,0.60974,0.0741,-0.46156,-0.28303,-1.3034,1.1964,1.4514,-1.0483,-0.15551,-0.51262,1.0434,-0.76773,0.43122,-0.35955,-0.05347,-0.46166,-0.23206,-0.10449,-0.18101,0.32917,0.48219,0.0741,-0.28303,-0.027931,0.17606,-0.4616,-0.15557,1.1199,0.50767,-0.61463,0.76275,0.66075,1.3494,-0.84427,-1.0483,-0.33409,-0.66566,-0.28303,-0.181,0.099588,0.074093,0.30366,0.023047,0.40566,-0.3851,0.12507,2.1401,0.35464,0.17609,0.35465,-0.28302,-1.3289,-1.4054,-0.053495,-0.53812,0.96685,0.8903,0.60971,0.50766,-0.13,-0.64015,-1.0227,-0.4616,-0.58912,-0.28311,1.3749,2.3442,1.3239,-0.61467,0.60972,-0.53812,-1.3034,-1.0483,-0.10452,-0.027938,-0.43613,0.5332,-0.10449,-0.078996,0.12507,0.71178,0.73731,0.40565,-0.33404,0.38012,-0.71667,-0.61471,0.023023,0.76273,-0.99726,0.58422,-0.18101,-0.28305,2.0381,-0.30857,-0.51262,-1.1758,-0.58915,-0.25755,1.528,0.89035,-0.66565,0.22713,0.30361,0.2781,0.15056,-0.23202,-0.71666,-0.97171,0.048567,0.27809,1.1199,0.48218,0.73721,-1.0483,-0.74221,0.50769,-0.002467,-0.53809,0.023029,1.2219,0.45666,-0.33406,-0.18103,0.27809,-0.79319,0.38013,-0.23202,-0.61467,-0.58912,0.40565,-0.28303,0.4567,2.0382,0.22712,-1.2779,0.22712,0.83928,-0.89526,-0.15549,-0.02798,-0.33405,-0.10453,-0.079002,0.53318,-0.86971,-0.35957,-0.05347,1.6045,0.17607,0.074057,-0.4871,-0.20651,-0.15548,-0.18102,-0.58915,1.2729,-0.41057,-0.13002,-0.58913,-0.8442,0.04858,0.32911,1.1964,-0.38513,-0.69118,0.91579,1.2984,-0.99724,-0.30852,-0.2575,-0.12999,-0.92075,0.73723,0.17607,-0.13006,2.7268,1.579,-1.2013,-1.3033,-0.99725,-0.41059,-0.41054,-0.48707,-0.58916,0.91581,1.0178,0.60973,-0.46164,0.2271,0.17612,-0.48708,0.17611,-0.23203,0.17607,-1.2524,0.48213,-0.69118,0.91581,1.2984,-1.2268,-0.89518,-0.8697,-0.15554,1.2729,0.43112,-0.46162,-0.61468,-0.69121,0.43119,0.83931,0.63525,0.15057,-0.51262,-0.66568,0.48219,-0.027925,-0.05347,-0.69117,0.38013,0.22708,-0.053488,-0.92077,-0.002491,0.53317,0.94131,1.0944,-0.53813,-1.6094,-0.56359,-0.5636,2.4973,-0.66569,-1.4054,0.15054,0.96681,0.074026,0.45667,-0.4616,-0.76769,0.83934,0.5332,0.25262,-0.25757,-0.53811,-0.69121,-0.4361,1.0434,-0.30854,-0.46156,-0.4361,0.66073,0.048555,-0.48714,0.25259,0.09951,1.8596,-0.97177,0.38016,-0.18098,-1.3798,-0.38503,-0.28305,0.35459,0.58418,-0.028018,0.40564,0.91581,0.074051,-0.74215,0.40566,0.25263,-0.41058,-0.94628,-0.56363,0.048525,1.0433,0.48222,-0.33406,-0.20651,1.273,-0.4616,0.074057,-0.30861,-0.5637,1.1964,-0.48714,-0.43609,0.25261,0.91589,-0.5381,-2.1706,0.94131,0.074051,0.89028,-0.15556,-0.51264,-0.33409,-0.20651,0.58422,-0.2575,-0.002467,-0.12996,0.099564,0.048555,0.022992,0.074013,-0.28308,0.15056,0.66075,0.074087,-0.81868,-0.79319,1.1454,-0.002503,-0.30858,1.477,-0.94624,-0.53812,-0.002405,-0.43606,-0.48705,-0.10449,0.30359,0.20155,0.25255,-0.028011,1.732,-0.10448,0.40566,-0.56359,0.074062,-0.66564,-0.38509,-0.41061,-0.28308,0.91581,-0.027974,-0.232,-0.41057,0.023084,0.50766,-0.20654,-0.027974,-0.15553,1.1199,0.12504,-0.92072,0.023023,0.45669,1.3239,-0.23202,-0.23203,-0.86975,-1.4054,-1.0993,0.099595,1.4515,-0.92074,1.1964,1.8595,-0.30856,-0.078996,-0.33408,-0.46157,0.35464,0.35468,-0.38511,-0.10448,-0.53812,-0.35957,-0.64013,1.681,0.32917,-0.33411,-0.66568,-0.4361,0.91577,0.20159,-0.18101,-0.35957,-0.2575,-0.25754,-0.38503,-0.25753,0.15057,-0.028023,0.6097,0.27808,0.27814,0.40566,-1.3033,0.83929,0.074062,0.38014,0.12507,-0.76769,-0.28305,-0.5126,-0.38504,0.38012,-0.027956,0.55869,-0.25756,-0.13,-0.48713,0.58419,0.35463,-0.13002,0.20161,0.099559,-0.81869,0.099546,0.023035,-0.1045,-0.28303,0.48217,1.5535,-0.89523,-0.56362,-0.30856,-0.71668,1.0433,1.2474,-0.7167,-1.2269,-0.74218,0.86478,-0.12999,0.17612,-0.48708,-0.2065,-0.23203,1.0689,0.38014,-0.23205,0.60967,-0.46161,-0.002479,-0.4871,-0.28302,-0.33406,-0.33407,0.25261,0.25255,1.1454,-0.33405,0.15061,-0.28303,-0.25755,-0.61465,-0.25755,0.94135,0.60972,0.099559,-0.15554,-0.71668,-1.1248,0.63523,0.76276,0.25261,-0.02795,-0.20653,-0.18103,-0.30855,0.20156,-0.66567,0.60972,1.1709,1.3495,-0.5381,-0.84419,-0.51262,-0.53815,-0.10451,0.15053,-0.33409,0.40569,-0.48711,0.048549,0.53318,0.86479,-0.078996,0.20158,0.8393,0.20159,-0.33407,-0.41056,-0.89524,-0.74216,-1.1248,0.78827,-0.38508,0.66076,0.55872,0.8648,-0.64021,-1.1758,0.73725,0.15059,-0.30859,0.32914,-0.13001,-0.28302,0.20161,-0.10448,0.32909,-0.53812,-0.13002,1.2475,-0.41057,-0.51261,-0.35962,0.074038,0.22707,-0.28306,-0.10453,0.40568,0.27812,0.22714,-0.002443,-0.10449,-0.13002,-0.30855,-0.3596,-0.20652,-0.028018,0.15059,-0.46159,-0.30854,-0.30854,1.1964,-0.053476,-0.28308,-0.079008,1.3749,-0.18103,-0.43606,-0.76772,0.048561,-0.46161,0.023065,0.6352,0.78828,0.43118,-0.51259,-0.13001,-0.35956,-0.48716,0.023035,-0.15551,0.023047,0.15058,0.8903,-0.25754,-0.33407,0.4567,-0.58917,-0.94624,-0.7422,1.0434,0.91582,0.78828,-0.41061,-0.41061,-0.58913,1.6555,-1.1248,-0.74217,-0.74218,-0.078941,-0.027974,0.40566,0.3291,0.78825,-0.35959,0.30364,-0.181,-0.66565,-0.38509,0.99234,1.5535,-0.66569,-0.79319,0.048536,0.2526,-0.10452,-0.58913,-0.28305,1.2474,-0.078959,-0.8442,-0.81868,-0.23202,1.6045,-0.13007,-0.13003,0.074057,-0.10449,-0.58915,0.91579,0.22712,0.25262,-0.56361,1.2219,-0.002472,0.35464,-1.1248,-0.74218,-0.81872,-0.43608,0.60974,-0.002472,0.30364,0.48216,-0.002461,1.0688,-0.027944,-0.48713,-0.48711,-0.3851,0.4057,-0.078984,-0.23201,0.17607,0.27805,-0.86974,-0.13005,0.53321,0.96683,0.99237,-0.64017,-0.71665,-0.92073,0.17607,1.0433,-0.23204,0.099595,-0.10453,-0.5891,0.5077,-0.46161,0.83927,-0.10452,-0.25758,0.25262,-0.027987,0.40564,-0.56362,-0.4871,-0.078959,0.32913,0.71173,-0.33405,1.2219,-0.25755,-0.43613,-0.84424,0.09957,-0.078972,0.099583,0.32912,-0.10449,0.32913,-0.84419,0.66074,0.25262,0.27814,-0.41062,0.99232,-0.027962,-0.43611,-0.38506,-0.20653,-0.46161,1.5025,0.55869,-1.1503,-0.33405,0.023065,0.76277,-0.30852,-0.43612,-0.10449,0.099564,-0.002472,1.1199,0.7117,-0.35959,-0.51262,-0.15548,0.074111,0.30363,-0.23202,0.76274,-0.53815,-0.51263,-0.20652,-0.053482,0.50767,-0.53812,-0.35956,0.53321,0.074038,-0.23205,0.074026,-0.053506,0.25261,0.074062,-0.053433,-0.38508,-0.28303,0.8903,-0.38509,-0.38505,0.9413,0.73721,0.099521,-1.0228,-0.13,-0.69113,0.7118,-1.0738,0.20161,2.2677,-0.79326,-1.1248,-0.66567,0.2526,0.04858,0.048561,-0.76768,1.0179,0.53315,-0.10451,-0.078977,-0.25756,0.45664,-0.25753,-0.10449,-0.053446,-0.35957,-0.23204,-0.053488,0.53317,0.86479,0.074062,0.20156,-0.053519,-0.46158,-0.58915,0.58422,-0.30856,0.22712,0.074075,-0.25756,-0.56363,-0.20652,-0.002479,0.048543,1.7831,-0.48708,-0.23205,-0.07899,0.73723,0.074038,-0.43611,-0.94623,-0.13,0.30362,1.8341,0.32913,-1.1503,-0.38505,0.3036,-0.7422,-0.028011,-0.33409,-0.64015,-0.12999,0.60978,0.17611,0.91579,0.099564,-0.15555,-0.28307,-0.38513,0.22708,0.074044,0.25262,-0.66565,0.099601,-0.53812,-0.23202,1.0688,0.50771,0.30361,-0.66567,-1.1758,-0.51258,0.78825,-0.28303,-0.25755,1.0434,0.60968,-0.28306,-0.20656,-0.43609,-0.66567,0.048573,0.89032,0.023047,0.73725,-0.18101,-0.71671,-0.10449,-0.51262,0.43115,0.6352,-0.15553,0.35467,0.17612,-0.61463,-0.41058,0.35461,-0.10451,-0.30858,0.02301,1.1199,-0.3851,-0.41058,-0.1555,0.66076,-0.078977,0.099559,0.099577,-0.078996,-0.23203,0.12509,-0.002454,-1.0483,-0.46164,0.023041,0.6352,0.86479,0.25259,0.2016,-0.48713,-0.30855,-0.20652,-0.35953,0.023072,-0.23201,0.53317,0.55871,-0.053544,-0.079021,-0.28309,0.30365,0.15059,0.12511,-0.99727,-0.56361,-0.078996,-0.079014,0.12505,-0.53811,1.5791,-0.51259,-0.53811,0.32912,-0.10452,-0.079026,0.09951,0.17608,0.023029,-0.13,-0.053446,0.074081,-0.078984,0.32913,-0.13,-0.078966,0.099564,1.63,-0.25754,-0.69121,-1.0993,-0.79319,-0.43613,0.40566,0.27812,0.12509,0.83928,-0.97174,0.048525,-0.002485,0.27811,-0.15548,0.99234,0.27814,-0.69118,-0.053439,-0.13,-0.20657,0.68619,0.22707,-0.02795,0.20159,-0.38503,-0.18105,-0.28302,0.023017,-0.13,-0.41061,0.66072,0.30361,-0.23202,-0.18101,0.0741,0.15057,-0.28303,-0.23205,-0.28306,0.17606,0.048567,0.58418,-0.10447,0.81376,0.40565,-0.84422,0.25262,-0.25753,-0.30856,-0.20656,-0.079002,-0.41061,-0.053464,-0.027944,-0.20653,1.0944,0.1251,-0.41057,-0.15553,0.6607,-0.53817,-1.0738,0.17607,1.5535,0.63524,-0.46158,-0.33405,-0.69119,-0.25753,0.6352,-0.027987,0.12507,-0.12998,-0.33406,-0.28308,0.73728,0.73725,-0.20652,-0.76768,-0.58918,0.50768,-0.28306,-0.33409,0.074069,0.63523,-0.2065,0.38014,-0.053476,-0.56362,-0.23205,-0.027962,-0.027993,-0.30855,0.12508,0.2271,0.91581,0.2271,0.40563,-0.48711,-0.028018,-0.13002,-1.1248,2.0892,-0.33405,-0.94621,0.2271,0.22713,-0.002454,-0.51263,-0.13,-0.38511,-0.002503,0.074062,0.12509,0.023047,-0.23201,-0.027962,0.71173,0.83928,0.022998,-0.25757,-0.35957,0.074051,-0.18101,-0.46157,0.96685,-0.66564,-1.1248,-0.13002,1.2219,0.53319,-0.38511,-1.4309,0.12505,0.43118,-0.25754,-0.1555,-0.13004,0.38017,0.60973,0.12507,-0.027969,-0.35957,0.40566,-0.053506,-0.078959,-0.30856,-0.20653,-0.028011,-0.002472,-0.15553,-0.97176,0.50771,0.96681,1.0689,0.17609,-0.43606,-1.2524,-0.58914,-0.66572,-0.43611,1.0178,-0.02792
