-0.07899,-0.078984,0.30362,0.048555,-0.027969,-0.20653,-0.13001,0.023035,0.32913,0.27812,-0.35957,0.12509,-0.46158,-0.23201,-0.02795,0.25261,0.38012,-0.13003,0.048536,-0.002454,-0.10449,-0.13,-0.002467,-0.053488,0.73725,-0.28307,-0.027974,-0.078996,0.17608,-0.41058,-0.28303,-0.23204,-0.10449,-0.13001,0.30361,0.43115,0.35464,-0.053495,-0.30855,-0.20653,0.023017,-0.10451,0.81379,0.1251,-0.48711,-0.53815,-0.33407,0.17608,-0.18101,0.15057,0.3036,0.68624,-0.10451,-0.23202,-0.25752,-0.181,-0.28303,0.35464,0.074044,0.12507,0.099546,0.12507,-0.078984,-0.51261,-0.002443,0.048561,-0.15551,-0.13001,0.12506,0.83927,-0.35959,-0.053488,-0.002461,0.09957,-0.12999,-0.002461,-0.25753,0.53319,-0.35958,0.2526,-0.15552,-0.078996,0.15057,-0.1555,0.27813,-0.12999,-0.33407,-0.20653,0.12505,0.22708,0.074038,0.43116,-0.002479,0.09957,0.023047,0.71176,-0.35956,-0.8187,-0.48712,-0.28306,0.20159,0.074051,-0.002472,0.048555,0.048543,-0.002472,0.074062,0.60971,-0.027974,-0.28303,-0.1555,0.22712,-0.12999,-0.4361,0.38016,-0.23204,-0.002461,0.20159,0.023047,-0.027969,-0.13001,-0.23203,0.099559,0.15057,-0.078984,0.17608,-0.10449,0.38016,-0.13002,-0.18103,0.099564,0.30362,0.074062,-0.28305,-0.38506,-0.027956,-0.33406,-0.13002,-0.053495,0.40564,1.1709,-0.3851,-0.35956,-0.30855,-0.002461,0.38015,-0.07899,0.15059,-0.33406,0.32913,0.048549,-0.38509,0.023035,0.023035,-0.027987,0.048555,-0.002472,-0.20653,-0.027969,-0.027962,0.55869,-0.1045,0.074044,-0.25753,-0.35957,0.099583,0.023054,-0.10449,0.023029,-0.002467,0.32912,-0.10451,-0.10449,-0.25754,1.477,-0.15549,-0.4361,-0.64015,-0.30856,0.38014,-0.15554,0.20158,0.30363,-0.12999,-0.46158,0.15059,-0.1045,0.15057,0.25258,-0.0535,-0.13002,-0.18101,-0.13,-0.02795,0.17609,0.074038,-0.053495,-0.002472,0.12507,-0.027962,0.09957,0.25261,-0.002467,0.15058,-0.25756,0.2271,-0.61467,-0.002497,-0.30858,-0.027993,0.074051,0.048536,0.43116,-0.053482,0.099552,-0.053488,0.43118,-0.25753,0.73724,-0.25755,-0.30856,-0.23203,-0.10449,0.048561,0.074044,-0.10452,0.17608,-0.002454,0.35465,-0.20652,-0.25754,-0.027969,0.22709,0.17609,-0.33406,-0.30854,-0.25755,0.15056,0.22708,0.17606,-0.13,0.27814,0.09957,-0.13001,-0.30857,0.48216,-0.053482,-0.078984,-0.23203,-0.30855,0.32913,0.43117,-0.20652,0.099559,-0.33406,-0.61465,-0.20655,0.48217,-0.38511,0.12505,0.12507,0.25262,-0.002448,-0.10447,-0.10449,-0.002485,0.22709,-0.002485,0.32912,-0.053482,0.27814,-0.12998,-0.20652,-0.35956,-0.078984,-0.079002,-0.002485,-0.053488,0.50768,0.27813,-0.23203,-0.30855,-0.15551,0.048536,0.17607,0.83928,1.0178,-0.4871,-0.25756,-0.51263,-0.58916,-0.46161,-0.027962,0.22713,0.22712,0.8648,0.3036,-0.1045,-0.053488,-0.1555,-0.20652,-0.002467,-0.28305,0.2271,0.63521,-0.51263,-0.25754,-0.35956,0.48219,-0.25754,-0.25754,-0.1045,-0.002461,0.09957,0.15057,0.15056,0.023047,-0.053476,-0.078984,0.17609,-0.13,-0.053482,0.40566,-0.23203,-0.4361,-0.15552,-0.18103,0.32912,-0.079021,0.074051,-0.002467,-0.1555,0.32913,0.12507,-0.48713,0.25261,-0.25755,-0.13,0.12506,0.17607,0.12505,0.45669,-0.002436,0.048561,-0.15551,0.074038,-0.30856,-0.25757,-0.18105,-0.15553,-0.38508,1.426,-0.28305,0.048555,-0.58913,-0.28305,0.43116,-0.13001,0.023029,0.1506,0.023054,0.048567,-0.10447,-0.027956,-0.078972,-0.027974,-0.07899,-0.18103,-0.053488,0.3291,0.12507,-0.13001,-0.25754,-0.027969,-0.027969,-0.027993,-0.23205,-0.079008,0.27809,0.15057,0.048543,-0.053458,0.074075,0.20162,-0.078972,-0.1045,-0.33407,0.48218,-0.30857,0.8903,-0.58914,0.48217,-0.38509,-0.18103,-0.15551,-0.18102,0.12507,0.45667,0.15057,-0.078972,-0.053476,-0.12999,-0.23202,0.17609,-0.23204,-0.13001,1.2219,-0.41059,-0.23204,-0.46161,-0.13,-0.15549,-0.181,0.074075,0.099583,0.32915,-0.002454,-0.053476,0.12506,-0.38509,0.81379,-0.13,-0.027969,0.2016,-0.23203,-0.25755,0.20159,0.12507,0.023041,0.15057,0.30363,0.20159,0.32913,-0.30855,-0.58914,0.023047,0.38014,0.09957,-0.20652,0.074062,0.30363,0.20162,-0.05347,-0.33405,-0.33406,0.81377,-0.30857,-0.35959,-0.10451,0.12507,0.15058,-0.053458,-0.002454,-0.078977,0.099552,0.17607,0.20159,0.32913,-0.38508,0.25263,-0.18101,-0.46159,0.023059,-0.1555,0.30363,-0.10451,-0.079008,-0.13004,-0.0535,0.074051,0.048543,0.023041,0.074081,-0.053451,-0.002461,0.074044,0.099546,-0.20655,0.074038,0.023035,-0.15551,-0.078984,-0.027962,1.0434,0.22712,-0.66565,-0.4361,-0.33407,-0.13002,-0.079002,0.074062,-0.15549,-0.25752,0.55873,0.17609,0.35462,0.35464,-0.66567,-0.46159,0.1232,-0.15551,0.12506,-0.35958,1.1964,-0.002461,0.048561,-0.4871,-0.35958,0.27809,0.074033,-0.1045,-0.027962,0.023059,-0.002454,-0.20652,-0.28306,0.2271,0.27813,-0.13002,0.12507,1.0943,-0.43609,-0.25753,-0.10448,-0.25754,-0.053495,0.074033,0.048536,0.023054,0.048555,0.099559,0.099559,0.074062,0.15059,-0.027969,-0.30855,0.09954,0.099559,0.023047,0.15057,-0.15551,-0.053488,-0.25754,0.73729,0.20159,-0.30858,-0.53814,-0.18102,0.58421,0.32912,-0.33408,-0.15551,0.12509,-0.25754,0.15058,0.58419,0.17607,-0.35957,-0.23202,0.048567,-0.10451,0.023023,0.83928,-0.25753,-0.58913,-0.4871,-0.20651,1.3749,0.048525,-0.28307,-0.18103,-0.10447,0.30364,0.86482,-0.56365,-0.79322,0.17609,0.43115,0.45667,-0.74216,0.71176,0.76275,0.1761,-0.71666,-0.76771,0.17607,0.023041,0.40566,-0.30855,0.20161,1.0943,-0.23205,-0.20653,-0.56364,-0.51261,0.45668,-0.053506,0.48218,0.074057,-0.74219,-0.30856,1.6045,-0.76769,-0.181,-0.30855,-0.64015,0.2526,0.35464,0.89029,1.9871,-0.53814,-1.3799,-0.79319,0.89032,-0.4106,-0.74218,-0.28302,-0.30855,-0.15559,0.48214,0.50769,0.91583,0.58423,0.32913,0.53318,-0.33407,-1.0228,0.35465,-1.2013,-0.76769,0.78825,0.45666,-0.23204,-1.4309,-0.53815,1.1964,0.89032,0.68624,-0.58916,-0.43614,0.27812,0.25265,-0.56362,0.12509,-0.002454,-0.58915,0.45664,-0.18105,1.528,0.074038,0.99234,-0.94623,-0.71668,-0.56362,-0.4106,0.48218,0.048536,-0.28306,1.1454,0.2016,-0.33407,0.45668,0.8648,0.38019,-0.28303,-1.0738,-0.41058,-0.38508,-0.23207,-0.28306,-0.18099,-0.002479,0.17602,0.68625,2.0126,-1.4054,-0.7677,-0.61464,0.9413,0.074062,-0.15549,-0.078966,-0.1555,-0.4361,0.73727,-0.13001,0.099546,-0.10449,-0.53814,-0.13004,0.40563,-0.41061,-0.66564,-0.46159,0.71177,-0.053458,-0.58914,0.35465,0.048531,0.58422,0.99236,0.32915,-0.79318,-1.2523,0.09957,-0.10452,-0.56368,0.83928,-0.25754,-1.0738,0.20162,1.8086,-0.61464,0.4822,-0.51265,0.22709,-0.81872,0.35465,0.32915,-0.13001,0.023041,0.12505,0.15058,-0.13001,-0.13002,0.099577,1.1199,-0.053544,-0.4361,-0.51259,-0.35955,1.2219,-0.56366,-0.35959,-0.33405,-0.15557,0.58417,0.17612,-0.35956,-0.30856,0.15059,-0.30858,0.048573,1.6045,0.22709,-1.3034,1.0434,-0.10451,-0.30856,-0.43609,-0.66565,-0.30854,-0.43609,0.48217,0.76276,-0.15551,-0.12999,0.099564,0.099552,-0.94627,0.78828,0.38017,0.023054,-0.56363,0.38014,-0.61463,-0.35957,0.25259,-0.18104,0.12505,-0.20652,-0.078959,0.94133,0.48217,0.27811,-0.12998,-0.51258,-0.15559,-0.25758,-0.30852,0.099583,0.1761,-0.33404,-0.35957,0.023047,1.0944,-0.079008,-0.25754,-0.12999,-0.1045,0.12507,-0.43612,0.09957,-0.13,0.15059,1.1709,0.43116,-0.48713,-0.4106,-0.10449,-0.51262,-0.48713,0.68625,0.7373,-0.28305,0.60969,-1.0738,-0.94625,2.4718,0.45669,-0.25753,-0.13002,-0.76769,-0.15549,0.68623,-0.027974,-0.181,-0.33407,0.45666,0.58419,-0.15552,-0.56362,-0.20652,0.53321,0.76277,-0.81869,-0.13003,0.12502,-0.74218,1.0178,-0.4106,-0.8697,0.81382,0.20158,0.074033,-0.4106,-0.053488,-0.15552,-0.38507,0.45669,1.0178,-0.23207,-0.51259,0.27812,0.53318,-0.64016,-0.86972,0.43118,-1.0993,0.099559,1.0434,-0.18105,0.30364,-0.30855,0.43118,-0.71667,-0.33407,-0.81873,0.91579,0.53318,0.12505,-0.002461,-0.053476,-0.28302,-0.35956,0.17611,-0.053495,-0.10452,0.2526,0.023041,0.35467,0.048573,-0.25754,-0.23204,-0.25756,-0.46161,-0.76767,0.63523,0.50765,-0.25752,-0.053427,0.76272,-0.027993,-0.18103,-0.20653,0.60975,-0.69115,0.22709,-0.23209,-0.7422,0.43113,-0.053525,-0.002443,0.68627,0.30365,-0.66565,0.2271,-0.86974,-0.25757,0.94131,0.074062,-0.30855,0.20162,-0.58912,1.1199,0.074051,-0.15551,-0.99728,0.48217,-0.66566,0.73727,-0.02798,0.2526,-0.4361,-0.28306,-0.0535,0.38013,-0.15551,0.023023,-0.15549,-0.18101,0.55869,1.1454,-0.232,-0.25751,-0.181,-0.30858,-0.51261,-0.15552,-1.3544,1.6045,0.099564,-0.38509,-0.38509,0.35464,0.20163,1.0434,-0.13002,-0.56368,-0.0535,-0.58916,0.074026,0.73728,-0.027969,-0.33404,-0.43607,1.477,0.25261,-0.7167,0.17607,-0.002467,-0.8442,-0.002454,0.73723,-0.18103,0.38015,0.66073,0.91581,-0.84421,-0.89521,-0.8187,0.27812,0.38017,-0.15549,-0.33407,-0.28306,-0.053495,-0.002479,0.20157,0.40566,-0.48711,0.73724,0.40566,-0.20652,0.50769,-0.33406,-0.56362,-0.28305,0.32912,0.63522,-0.23203,0.53318,-1.0738,-0.25754,1.2219,0.17608,-0.48714,-0.89526,-0.002491,-0.002467,0.40565,0.27812,0.4312,-0.51258,0.25263,-0.20652,-0.92078,0.38012,-0.079002,-0.10449,0.8648,0.20161,-0.48711,-0.33406,0.30365,-0.41059,-0.48713,-0.23205,0.074062,-0.10449,-0.0535,-0.18102,0.58422,0.15062,-0.15549,-0.002472,0.22708,-0.15556,0.3036,1.0434,-0.56363,0.25264,-0.81872,-0.7932,-0.053482,-0.10449,0.53322,-0.053451,-0.38515,0.43114,0.22713,0.58424,-0.51263,-0.23202,-0.64015,0.38015,0.66073,-0.28307,0.43115,0.50769,-0.58914,0.09957,-0.20653,0.86481,-0.13002,-0.61465,-0.61463,0.50766,-0.15549,-0.10447,0.099497,-0.43616,1.2985,-0.23201,-0.20649,-0.002443,0.48218,0.32909,-0.51264,-0.10449,0.074044,-0.30858,0.5332,-0.002454,-0.66565,0.5077,0.66072,-0.71671,-0.027987,-0.51261,1.477,0.17609,-1.5839,0.40565,-0.81871,0.55871,0.5332,0.048531,-0.13001,0.20161,-0.027969,-0.84422,-0.28308,0.43115,0.15058,-0.23202,0.074033,0.86474,0.074044,-0.66563,0.27815,0.04858,-0.51262,-0.02798,0.074057,-0.1045,-0.3596,-0.1045,0.32912,-0.10449,0.15059,-0.43608,1.4005,0.20163,-0.71664,-0.20653,-0.35958,-0.15553,-0.027993,0.27809,0.53318,-0.10451,-0.48713,0.12508,0.40566,-0.53815,1.681,-0.48713,-0.58916,-0.23203,-0.078972,-0.181,0.38016,-0.69116,-0.30856,0.99233,-0.15551,0.22711,-0.0535,-0.13001,-0.69117,0.15057,0.048536,0.94134,1.1454,-0.61464,-0.48711,-0.20653,0.2526,-0.3851,-0.41061,-0.13,-0.23202,0.27814,-0.002467,0.50768,0.1506,-0.43609,-0.41061,0.048525,0.73724,-0.64016,0.40567,-0.053464,0.30363,-0.30855,-0.56363,-0.027969,1.477,0.32905,-0.66565,-1.2268,0.048512,-0.181,0.023072,0.22713,0.048567,0.2271,-0.079033,0.45666,-0.027998,0.12507,0.12507,-0.30854,0.40568,-0.41059,-0.027944,0.048543,-0.38508,0.048555,-0.43609,1.3749,-0.43612,-0.53815,-0.13002,-0.078984,0.17608,0.2016,0.099583,0.12506,-0.84423,1.9106,0.048536,-0.56364,-0.33406,0.15059,-0.43608,0.68626,-0.7167,-0.25754,0.50769,0.023041,-0.15551,-0.53815,0.68623,-0.61465,-0.43609,0.22712,-0.23202,-0.12999,0.32912,-0.18105,-0.002461,0.22713,0.55871,-0.1045,0.12505,0.91581,-0.76771,-0.56364,-0.41058,-0.23203,-0.23202,0.099559,0.12507,-0.053476,0.40564,0.68624,-0.20652,0.25261,0.15059,-0.53815,-0.51263,-0.18101,0.38016,-0.28303,-1.0993,1.0434,0.45666,-0.23205,-0.53815,-0.7167,0.58421,0.32912,0.63521,-0.20652,-0.41058,-0.027969,0.023047,-0.18098,-0.13001,0.15058,0.1251,-0.76768,-0.181,0.91581,1.3239,-0.30859,-0.64018,-0.3851,0.38014,-0.43609,-0.33404,0.023054,0.12509,-0.13,-0.58913,-0.079008,-0.10452,0.27811,0.45666,-0.13001,0.40565,-0.46159,0.27813,0.38016,-0.58915,1.0178,-1.0483,1.0179,-0.05347,-0.61466,-0.51263,-0.4361,0.048561,0.68623,0.048561,0.023023,1.528,-0.48711,0.12505,-0.56365,-0.66565,-0.15553,0.30365,0.66077,-0.1555,-0.18102,-0.13002,0.83928,0.48215,-0.33409,-0.53813,-0.0535,-0.18103,-0.078959,-0.15551,0.32915,-0.002461,-0.002472,-0.18103,-0.6912,1.3494,-0.027944,-0.66567,0.78828,-0.43612,-0.25756,-0.18105,0.58419,1.0434,0.074081,-0.76769,-0.30858,-0.10451,-0.002461,-0.38506,0.35465,-0.079002,-0.30856,-0.1045,-0.25753,2.6504,-0.56362,-0.94623,-0.64015,-0.15553,0.6607,-0.58915,-0.4871,-0.28303,-0.18101,0.91584,0.5077,0.1506,-0.20655,-0.43609,-0.30855,-0.25757,-0.027993,0.20158,-0.20655,0.66075,0.099595,0.17611,0.78827,-0.64017,0.32912,0.40563,-0.13002,-0.94625,-0.46161,-0.232,0.60974,0.71175,-0.0535,-0.0535,-0.25757,0.09954,0.048536,-0.181,0.12509,-0.181,-0.053482,0.86478,-0.35959,0.63523,0.023035,-0.99727,-0.18103,0.30363,0.27813,-0.28306,-0.51262,-0.053488,-0.28304,1.4005,-0.58913,0.35464,-0.74218,0.023023,0.20158,-0.48712,-0.28305,1.1199,-0.10447,0.099583,-0.74218,0.78827,1.0688,-0.30857,-0.84424,-0.43609,-0.078984,0.048536,0.099577,-0.181,-0.002472,0.35463,0.1251,-0.027993,-0.028018,-0.23204,0.32915,0.30364,-0.33405,0.48218,-0.71669,-0.76771,-0.25757,0.63523,-0.13,-0.027974,0.099577,0.15062,0.35463,-0.053519,-0.30855,0.023054,0.76277,-0.002472,-1.2779,1.2219,-0.84422,0.78827,-0.76768,-0.027956,-0.35959,0.25258,0.60971,0.1506,-0.43609,-0.35957,-0.15552,0.40566,0.074069,-0.12999,-0.33406,0.40563,0.32913,-0.027969,-0.23203,-0.05347,0.48219,-0.18103,0.30362,0.1506,-0.64015,-0.30858,-0.079021,-0.18102,0.048573,0.15059,0.45666,-0.20654,0.63523,-0.38504,-0.86974,0.0485,0.35462,-0.15551,-0.05347,0.7628,-0.43609,0.45666,0.17608,0.20159,-0.48711,-0.51263,-0.43612,-0.13,0.43118,-0.18101,0.20159,0.45669,0.35465,0.38014,0.20158,-0.35958,-0.58913,-0.4616,0.048531,-0.28304,-0.13001,0.35465,0.60972,0.48218,-0.002485,-0.69118,-0.30855,0.55871,-0.53811,-0.13,0.27811,0.71176,-0.027969,0.023041,-0.92078,0.78828,-0.13001,-0.69117,0.78828,0.30363,-0.35959,-0.38509,-0.18102,0.023059,0.048543,0.27809,-0.078996,-0.078972,0.09957,-0.0535,-0.28305,0.48217,-0.053482,-0.13002,0.12508,0.2271,0.71177,-0.58915,-0.027987,-0.46161,0.83928,0.074051,-1.2523,0.76278,0.48217,-0.20653,-0.84422,-0.20652,0.074069,0.023047,0.12507,-0.23205,0.58419,0.15056,-0.28305,0.94131,-0.35957,-0.23203,-0.23202,0.12509,-0.25752,0.048567,0.32912,-0.053482,-0.51263,0.074057,-0.61465,0.023047,-0.25754,-0.56365,0.86481,-0.51262,0.38016,1.1964,0.32911,-0.92076,-0.4871,-0.15551,0.58421,-0.027993,-0.13,-0.53814,-0.35957,0.27812,0.20159,-0.078984,0.73725,-0.20655,1.1709,-0.71666,-1.1758,0.099559,0.22708,-0.079008,-0.002503,0.20158,0.2271,-0.25753,-0.4616,0.22708,0.22711,-0.28305,0.023072,-0.027974,-0.25756,0.20158,0.48217,-0.35956,-0.30856,0.12508,0.68624,0.81379,-0.30857,-0.33406,0.023029,-0.23203,-0.66566,-0.4361,0.35462,-0.002467,0.25262,0.27812,-0.079002,0.17608,-0.35959,0.023029,0.86481,-0.61462,1.7576,0.3036,-0.53815,-1.2013,-0.41056,-0.69118,-0.0535,0.17606,0.22708,-0.053476,0.66075,0.50769,0.2271,-0.053506,-0.10447,-0.92072,-0.15553,0.048512,-0.027998,-0.18101,0.27813,0.30364,-0.15553,0.48216,0.68624,-0.35956,-0.053488,-0.53811,0.12507,0.27811,-0.92074,0.38017,0.15058,1.4514,-0.48711,0.4822,-0.99726,-1.1248,0.32913,-0.027987,0.63521,0.99232,0.074075,-0.35956,-0.25754,-0.13001,-0.13001,-0.002467,-0.18101,0.48219,-0.002448,-0.10448,-0.12999,0.63519,-0.53814,-0.74218,0.43118,0.81376,-0.61465,-0.51263,0.6352,0.73727,0.78829,-0.66565,-1.6605,-0.56365,-0.15551,0.48218,0.2526,0.27812,0.22709,0.048543,0.12508,0.048561,-0.027962,0.048536,-0.027987,-0.13,-0.027969,-0.13001,0.2016,-0.23202,0.023065,-0.58913,0.73723,-0.66567,0.15059,0.94131,-0.53817,0.71175,0.60973,-1.2268,-1.2779,-0.41058,-0.2065,-0.13,0.22708,0.43117,0.43117,0.27812,0.30363,0.30363,0.17611,0.074062,-0.027993,-0.0535,-0.41059,0.20161,-0.25755,-0.13002,0.30361,-0.10448,-0.43607,0.15059,-0.48715,0.2271,0.76279,-0.53812,0.023035,0.32912,-0.48714,0.4822,-0.30855,-0.13,0.55872,0.27812,-0.23205,-0.33407,-0.35956,-0.002461,0.048549,0.048585,0.25262,0.17607,-0.15551,0.91583,-0.76769,0.12507,-0.74219,-0.002472,-0.002454,0.099588,0.15059,0.20159,-0.43611,0.94132,-0.56366,-0.46162,0.023035,0.38016,0.73727,-0.078966,-0.33405,-0.58916,-0.18105,-0.43608,0.22711,0.25262,0.38014,0.15058,-0.23204,0.27812,0.68624,-0.18101,0.074062,-0.30856,-0.35957,-0.20654,-0.20652,0.17609,0.53321,-0.38506,-0.10447,-0.18103,-1.1248,1.7321,-0.18103,-0.58918,0.048543,-0.25754,0.53321,-0.027944,0.53321,-0.51263,-0.61467,-0.13002,0.48218,0.15057,-0.10448,-0.20653,0.27812,0.30364,-0.10449,-0.078996,0.099546,-0.30855,-0.38508,0.3036,0.048549,0.53318,-0.38508,0.63525,-0.74218,0.25261,0.2016,-1.5584,0.48218,0.94131,-0.20654,-0.078984,-1.0228,-0.20652,0.71177,-0.02798,1.4515,-0.20652,-0.33407,-0.79321,-0.053476,-0.48711,-0.002472,0.09957,0.35465,0.099588,0.78827,-0.10452,-0.15553,0.22709,-0.078996,-0.66567,-0.43607,0.099577,0.35464,0.15057,-0.38507,-0.61466,0.17609,2.1402,-0.89526,-0.69118,-0.33406,-0.20648,-0.079008,0.15057,-0.10449,0.12507,-0.35958,1.1709,-0.53814,-0.38506,-0.23203,0.2271,0.40565,0.58422,0.38016,-0.51262,-0.28308,-0.81871,0.32915,0.73728,-0.30857,-0.64015,0.15059,0.55873,-1.1248,0.9413,-0.28308,-0.027993,0.099577,-0.53812,-0.5381,-0.078972,0.45664,0.048531,0.099559,1.6555,-0.078972,-0.64018,-0.23201,-0.69115,-0.41059,-0.20652,0.40566,0.099546,-0.18105,0.83927,0.43116,0.15058,-0.25756,-0.71668,-0.25752,-0.002443,-0.053476,-0.20652,0.023023,-0.28308,0.40566,-0.07899,0.55872,0.12507,-0.027998,-0.46159,0.68625,-0.58914,-0.12999,-0.38511,-0.41061,1.4515,-0.38506,0.099546,-0.51263,-0.41056,-0.51258,0.66072,0.45663,-0.4361,-0.053464,0.30363,-0.53815,0.40566,0.35465,0.27812,-0.35958,0.32913,-0.33405,-0.33405,0.048561,0.023035,-0.69118,0.35463,-0.002485,-0.027969,1.0944,-0.53811,0.5332,0.023017,-0.23207,-0.43612,-0.56362,0.94135,0.53317,-0.71666,0.45669,-0.46159,-0.41057,-0.38509,-0.053495,-0.58918,1.2219,0.15059,-0.23204,-0.078972,-0.002454,-0.53812,-0.027974,1.0943,-0.30859,0.89027,-0.07899,-0.79321,-0.4106,0.12509,0.8648,-0.4106,0.35464,0.074075,-1.6095,-0.28306,-0.43612,-0.053488,0.023041,0.91583,0.58422,-0.027962,0.43117,-0.002448,-0.33407,-0.41058,-0.4106,0.17609,1.1199,-0.92074,1.2474,-0.15549,-0.79322,-0.61465,0.074033,-0.51265,0.023047,0.30364,-0.76768,0.12512,-0.18103,0.78827,0.89031,-0.53812,-0.46159,-0.15549,0.53319,0.074062,-0.43612,0.40564,0.63523,-0.002472,-0.66565,0.20159,-0.53813,0.17607,-0.027993,-0.28307,0.38016,0.50769,0.50772,0.25261,0.35463,-0.079002,-0.64018,-0.69118,0.048567,-0.46158,-0.053482,0.58419,0.20159,0.023041,0.20159,-0.64015,-0.053476,0.15058,-0.38508,0.17609,0.30361,0.25263,-0.027956,-0.20652,-0.64016,-0.13001,1.4004,-0.10452,-0.027998,-0.13,-0.38505,-0.23201,-0.25754,-0.41061,-0.18103,0.38016,0.48218,0.27811,-0.053488,-0.46161,0.17607,0.22711,-0.48711,2.3443,-0.4871,-0.56364,-0.3851,-0.10452,-0.38513,0.074062,-0.13,0.30363,-0.28305,0.22712,-0.1045,-0.61465,-0.25754,0.78826,0.60973,0.66073,-0.71669,0.048555,-0.078984,-0.078972,0.2016,-0.84422,-0.002485,0.15055,0.023029,0.25262,0.83928,0.63524,-0.18103,0.074062,-0.51262,-0.02798,-0.13002,-0.64016,-0.43609,0.53317,0.27811,0.89031,-0.43607,-0.46161,-0.18103,-0.002485,-0.15553,0.50769,0.40566,-0.002479,-0.64015,-0.28305,-0.12998,1.2984,-0.25754,0.32913,-0.002479,-0.053482,-0.4871,-0.74217,-0.81871,0.45667,-0.69115,0.86481,0.30361,-0.23205,0.89032,-0.66567,0.15057,-0.56365,0.48218,0.15059,-0.69117,-0.13,0.15059,0.023054,-0.15553,0.25258,0.12503,-0.33408,0.45666,0.60973,-0.23199,-0.41061,-0.66566,0.048543,0.074038,0.9923,-0.28307,0.43117,-0.12999,1.0178,-0.99725,-0.12999,-0.4871,-0.84422,0.48218,0.78824,-0.4361,0.45668,-0.56365,0.099564,0.40566,-0.027969,0.12507,-0.51263,0.15056,-0.002472,-0.23204,-0.23204,0.43117,0.15059,-0.053476,0.25262,-0.25753,-0.10451,0.074038,-0.3851,-0.30856,0.32913,0.32917,-0.33406,0.50766,-0.61465,-0.56364,0.66075,0.45666,0.17605,-0.61465,-0.53812,-0.10449,0.20161,0.45668,0.20163,0.15057,-0.41062,0.55869,0.17606,-0.1555,-0.46159,-0.76771,-0.10449,0.023072,-0.4361,1.0689,0.09954,-0.48714,0.38014,0.074057,-0.12999,-0.33407,-0.23203,0.73725,0.27813,-0.078977,-0.64017,0.20161,-0.079008,-0.35961,-0.25753,0.89031,0.53318,-0.64015,-0.4616,-0.002467,-0.28306,0.5332,-0.05347,0.15056,-0.23204,-0.079014,-0.23203,0.17609,-0.25753,0.38016,-0.027974,0.60972,-0.53813,0.2781,0.68623,-0.56363,-0.20652,-0.89523,-0.64014,1.2729,-0.3851,-0.18105,1.2984,0.48219,-0.58914,0.25262,-0.8187,-0.58911,0.20159,0.50766,0.27812,-0.43611,0.35465,0.12507,-0.18105,-0.41057,0.25264,0.048536,0.048543,0.023047,0.32915,-0.20656,-0.3851,0.60971,-0.027969,0.15058,-0.86971,0.38017,-0.58916,0.40563,-0.35959,0.12506,0.66075,-0.13001,-0.053488,0.58421,-0.84422,0.43118,-0.20652,0.48218,-0.28307,-0.53815,-0.51263,-0.1045,0.074087,0.66074,0.27813,0.25259,-0.23204,-0.027962,-0.13,0.099583,0.32912,-0.13004,-0.61465,-0.4871,0.023072,-0.20652,-0.15553,0.023054,-0.1045,0.22706,-0.28305,0.86483,1.0434,-0.078977,-0.53812,-0.35957,-1.0228,-0.41061,-0.25756,1.0178,1.1199,0.048561,-0.5381,-0.51263,0.023059,-0.25755,0.48216,-0.23206,-0.18102,-0.58916,0.20159,0.2271,0.45668,0.074062,0.38016,-0.33405,0.27812,-0.58914,-0.53814,0.58419,-0.46161,0.12507,-0.15549,-0.053476,-0.05347,0.023059,0.55871,-0.18103,-0.053513,0.048543,0.17607,0.099564,-0.027969,-0.43609,0.43115,-0.28306,-0.28305,-0.28304,1.3494,-0.25756,-0.053506,-0.33407,-0.71666,-0.23202,-0.13,0.15057,0.12508,0.30364,0.38015,0.074051,0.43117,-0.61465,0.074044,-0.92074,-0.64013,0.55869,0.38013,0.45665,0.048549,-0.15553,-0.12999,-0.027974,-0.002467,-0.97175,0.15058,0.17607,0.38013,1.1709,-0.33406,-0.15552,-0.0535,0.15057,-0.51258,-0.56362,0.048512,0.22709,0.94133,0.20161,-0.51262,-0.53814,0.68621,-0.053482,-0.053464,-0.30854,-0.20654,0.38014,-0.002461,0.023047,-0.002461,-0.13003,-0.053488,0.40566,-0.15549,0.023035,-0.18103,0.60972,0.15059,-0.33404,-0.58914,-0.76772,0.099552,0.83931,-0.28304,0.71173,0.074069,0.048555,0.96683,-1.0483,0.074038,-0.7167,0.1506,-0.15551,0.5332,-0.02798,0.023047,-0.35957,0.25264,0.099577,-0.002461,-0.30859,0.50768,0.43118,-0.20652,-0.13002,-0.33407,0.30363,0.43119,-0.3851,-0.18105,-0.41059,-0.18102,0.099583,0.27813,-0.053495,0.023047,0.60973,-0.20654,0.023041,0.17607,-0.20653,-0.15551,-0.078984,-0.41056,-0.0535,0.20159,1.4515,-1.0483,-0.89524,0.40566,0.27812,-0.33405,0.40567,0.68623,-0.002472,-0.28305,0.2271,-0.20653,-0.4871,-0.30854,-0.3851,-0.18102,-0.18103,-0.028005,1.1199,0.30368,0.7883,-0.74219,0.43113,-0.20657,-0.33409,-0.35957,0.20159
0.023017,0.17607,-0.002472,-0.23202,-0.20653,0.099552,0.15059,-0.053458,-0.053476,0.12507,0.074038,0.048543,-0.13,-0.33407,0.45667,-0.002461,-0.078984,-0.078972,-0.027974,0.55869,-0.38509,-0.20655,-0.053495,-0.078972,-0.027969,-0.053476,0.074044,0.30363,-0.25753,-0.18101,1.0178,0.048525,0.12507,-0.23205,-0.28303,-0.181,-0.053476,0.023041,0.17607,0.20158,-0.20655,-0.28305,-0.35958,0.099583,0.60973,-0.58914,0.40566,0.99234,-0.25753,-0.38509,-0.1045,0.023023,-0.078996,-0.078996,-0.053458,-0.18101,-0.23202,0.2526,0.074051,-0.05347,-0.027974,0.43115,0.099534,-0.053495,0.074057,-0.05347,-0.053464,-0.027969,0.023023,0.43114,-0.23205,-0.25756,0.96682,-0.38507,-0.38508,0.023029,-0.078977,0.023065,0.074051,0.12507,-0.0535,-0.30856,0.17609,0.38013,0.20159,-0.07899,-0.46157,-0.28304,0.20159,0.023029,-0.053482,0.12507,0.099564,0.15057,-0.078984,-0.25752,-0.2065,-0.078972,-0.053482,-0.99727,0.50767,0.73723,-0.002479,-0.20653,-0.10447,-0.027956,-0.053458,-0.18101,0.15058,0.023029,0.43115,0.17606,-0.053488,-0.15551,-0.053476,-0.23204,-0.1045,-0.1045,0.023041,-0.027974,0.048555,-0.053488,0.2271,0.023029,-0.002467,-0.027974,-0.027956,0.099583,0.17609,-0.20653,-0.33409,-0.027993,-0.23204,-0.02798,0.048561,-0.71666,1.4005,-0.053458,-0.10449,0.40565,-0.89525,-0.002491,-0.56366,0.023047,0.17609,0.99234,-0.23201,-0.15551,-0.1045,-0.053495,-0.002461,0.15057,0.099559,-0.053464,-0.5126,0.91582,-0.43609,0.074044,-0.18102,-0.13001,-0.28304,0.20159,-0.07899,0.15056,-0.10449,-0.027969,-0.35955,0.32917,-0.13001,0.17609,-0.20653,-0.28307,0.58419,-0.15553,0.25261,0.30363,-0.58912,1.1199,-0.33406,-0.15551,-0.28307,-0.53815,-0.20655,0.048549,0.17609,-0.078972,0.023065,0.17609,0.38014,0.12507,-0.027987,-0.4361,1.0689,-0.41058,-0.51262,0.099546,0.32915,-0.74217,0.40566,0.074057,-0.30858,0.30361,-0.13002,-0.1555,-0.002461,0.074069,0.048543,0.099546,0.09957,-0.10448,0.60972,0.17606,-0.10452,0.099564,-0.002467,-0.002472,-0.027969,-0.51261,0.32916,0.12509,-0.51262,0.023035,0.20157,0.023035,0.27811,-0.02795,-0.53811,0.63524,-0.002467,-0.28306,-0.43612,0.27811,-0.38507,-0.027974,0.50769,0.15057,-0.027962,-0.053476,-0.28303,0.30363,-0.079014,0.048536,0.20158,-0.1555,-0.15551,-0.053476,0.63524,-0.30855,-0.13002,-0.23204,-0.053495,-0.30858,-0.002491,-0.15552,0.25261,0.58422,0.32915,-0.30854,-0.20653,-0.02798,-0.20653,-0.20653,0.38015,-0.07899,0.27812,-0.13,-0.86972,0.099552,0.074038,0.22708,-0.027993,0.099534,0.27811,0.12507,0.074062,-0.078966,-0.053476,0.09957,-0.15549,-0.078972,0.78829,-0.15551,-0.15551,-0.053464,-0.28303,-0.027969,-0.12999,-0.002454,0.074057,0.099564,-0.13003,0.09954,0.55868,-0.027993,-0.13002,0.048536,0.099559,-0.079002,-0.053495,-0.10451,-0.30858,-0.053506,-0.053506,-0.10451,0.30361,0.45666,0.15057,-0.10451,-0.20655,-0.23203,-0.13003,-0.35961,-0.10453,0.58419,0.96681,-0.35959,0.81378,-0.053495,-0.89526,-0.15552,-0.079014,0.45664,-0.53814,-0.28305,0.43118,0.66074,-0.13001,-0.4361,-0.81868,1.1454,0.50768,-0.33409,0.83925,0.30361,-0.56363,-0.66565,-0.38506,-0.07899,-0.43611,0.76275,0.38014,-0.23202,-0.05347,0.96684,-0.28306,0.48219,-0.97176,-0.79319,0.048555,-0.89526,0.2781,0.45666,-0.58914,1.1709,0.50769,0.73727,-0.23203,0.2781,-0.48711,-0.51264,-0.25757,0.023047,-0.02795,0.074081,-0.56364,0.09957,-0.28305,0.38015,0.40566,0.023029,0.38014,0.12505,-0.6657,-0.74221,-0.69118,0.63517,-0.46164,0.81381,1.0689,-0.38505,-0.48714,-0.23204,-0.28302,1.171,0.074057,0.099528,0.17607,-0.43608,-0.53815,-0.41061,0.66073,0.12505,0.22709,-0.43609,-0.10449,-0.3851,0.32913,0.35466,-0.30854,-0.7422,0.89031,-0.027969,0.27812,0.048567,-0.18101,0.1506,-0.05347,0.40566,-0.33406,0.048555,-0.20655,0.023029,0.43117,-0.25756,-0.1045,-0.58913,-0.13001,0.43119,0.63524,1.8596,-0.89526,-1.4819,-0.92077,-0.35958,1.9362,-1.3543,1.477,-0.48709,-0.02798,-0.30857,-0.027998,0.30361,0.35462,0.32913,-0.027962,0.22711,-0.46157,-0.5126,-1.0483,1.5025,1.5024,-0.13002,-0.69115,0.074081,-0.79319,0.023047,-0.41058,-0.41057,0.38013,0.15056,-0.28303,-0.027993,0.023035,0.60973,-0.25753,0.074044,0.58423,0.023029,-0.027998,-0.61463,-0.69115,0.099515,1.2984,0.048567,-0.74216,-0.18103,-0.078972,-0.38508,0.50766,0.12507,0.22712,0.048555,-0.1045,0.43112,-0.027969,-0.5381,-0.7167,-0.84424,0.25263,0.2271,0.60972,-0.23205,0.63521,-0.30854,-0.41058,-0.43609,0.55869,0.04858,0.68625,0.17608,-0.76772,-0.078984,0.048555,-0.053506,0.2271,-0.053476,0.074062,0.17611,-0.61465,0.25071,0.58419,0.15058,0.15059,-0.69116,-0.97175,-0.027993,0.38015,1.1454,-0.66565,-0.74218,0.73724,-0.20653,-0.002472,-0.30858,0.55869,0.074075,0.15058,-0.15551,0.22711,0.38018,0.35461,0.32908,-0.66569,-0.5381,-0.53809,0.074081,-0.027998,0.30361,-0.18103,0.78828,-0.078984,0.5077,0.66072,-0.6402,0.074033,-0.86971,0.35465,0.15059,-0.23204,0.63522,-0.92076,0.30361,-0.027987,0.40566,-0.18101,0.15059,-0.41056,0.22711,0.074075,0.4822,0.91584,-0.10451,-0.053506,-1.0228,-0.13001,0.40568,-0.23203,0.27809,-0.25754,-0.25756,-0.13002,-0.15554,-0.0535,0.074033,0.20156,0.20158,0.048585,0.20161,-0.25753,-0.28306,0.73726,-0.35955,-0.027987,0.96681,-0.28304,-0.4361,-0.002461,0.50768,-0.35956,0.074051,0.22709,0.023023,-0.64018,-0.64015,0.12507,0.023029,0.50768,0.96681,-0.61467,-0.25754,1.426,0.023054,-0.002461,-0.41058,-0.84419,0.22715,0.07402,0.38013,-0.10449,-0.76772,-0.53814,0.48216,0.50767,0.099559,0.78827,-0.23202,-0.4616,-0.002461,-0.13002,-0.053482,-0.027956,-0.053495,-0.33409,-0.33407,-0.002485,0.5332,0.20161,0.5332,-0.41061,-0.33409,0.58423,0.8393,-0.4361,-0.74218,-0.46162,0.27815,0.12507,0.48212,-0.33404,-0.35955,-0.10448,-0.002454,0.38016,0.35463,0.12508,0.15058,-0.13,-0.053495,-0.23203,0.2016,-0.51263,-0.15554,0.43115,-0.61463,-0.28303,0.43117,-0.07899,-0.002454,1.0179,-0.027987,-0.43612,-0.51263,-0.66565,-0.33408,0.023017,0.20159,0.30363,0.50773,0.099619,0.20152,0.20154,-0.078977,-0.1555,-0.002491,-0.002461,-0.13,-0.28301,0.12509,-0.43612,0.96681,-0.56362,-0.38506,0.48216,-0.53815,0.023023,0.73725,-0.15553,0.5332,-0.38509,0.048536,-0.43607,0.17611,-0.35956,0.55869,-0.02798,-0.181,0.27812,-0.20651,-0.10448,0.048555,0.32914,-0.81871,1.0178,0.023041,-0.43606,-0.33404,-0.078984,0.12507,-0.15552,-0.079014,-0.13001,-0.13002,-0.02798,-0.002461,0.45668,-0.23206,0.32913,-0.89523,-0.10449,1.1964,0.66072,0.50766,-0.64018,-0.71671,-0.46159,0.4312,0.55874,-0.18101,-0.71674,0.66072,-0.43609,0.074033,0.50765,-0.12995,-0.18101,-0.02795,-0.053464,0.2526,0.91581,-0.58915,-0.23203,0.27811,0.25257,-0.18105,-0.81868,0.023065,0.023059,0.43116,0.38013,-0.20654,0.023065,0.15059,-0.41059,0.048531,-0.53811,-0.53814,0.5077,-0.33406,0.76276,1.1199,0.32915,-0.86973,-0.58917,-0.38511,-0.25751,0.048573,-0.027987,0.53318,0.1761,0.30366,1.0434,-0.61468,-0.58916,0.22709,0.20158,0.40566,-0.46157,-0.2065,-0.25754,-0.33407,0.099546,-0.48713,-0.48714,1.2984,0.73726,-0.84421,0.45668,1.0944,-0.25754,-1.0738,0.5332,-0.69119,-0.46161,-0.002485,-0.20655,-0.30849,0.99232,0.40561,0.32913,0.17612,-0.38506,-0.38508,-0.053525,0.048536,-0.12996,-0.23202,-0.23203,0.17608,0.71175,0.40563,-0.13,0.30361,-0.35959,-0.35956,-0.4361,-0.23204,0.099577,-0.25752,-0.38506,-0.1045,0.2781,0.32914,0.30362,-0.05347,0.1506,0.68622,-0.58914,-0.15548,-0.23204,-0.10452,0.53319,-0.078996,0.27809,-0.51262,-0.56362,0.60974,-0.20652,0.3546,-0.58917,0.50773,-0.027962,-0.027998,0.099552,0.048555,-0.181,-0.33404,-0.23204,0.6352,-0.002467,-0.181,-0.25756,-0.002491,0.71175,-0.46159,-0.33408,-0.12997,-0.30854,0.1506,1.1199,-0.18105,-0.64016,0.48219,-0.33405,-0.33405,-0.1045,-0.23204,-0.027962,0.099559,0.074069,0.074069,-0.078996,2.2677,-0.18103,-0.56363,-0.61465,-0.58915,0.38016,-0.66564,1.2219,-0.25755,-0.53816,-0.30855,0.023059,0.45671,-0.5126,0.25256,0.94128,0.048567,-0.33404,-0.15549,-0.079008,-0.28306,-0.053476,0.20159,-0.25754,0.17607,-0.25753,0.73725,-0.053476,-0.13001,-0.4361,0.32911,-0.33409,0.12507,0.45668,-0.41059,-0.8442,1.1454,-0.33408,0.43116,-0.25755,0.45667,0.17609,-0.20652,-0.41059,0.4567,-0.12998,-0.027969,-0.51263,-0.079014,-0.66569,-0.30857,0.22712,0.5332,0.099564,1.528,0.099577,-0.41058,-0.48711,-0.46162,0.048543,-0.002467,0.023047,-0.25756,0.099552,-0.002454,0.25262,0.32914,0.15059,-0.079002,-0.7422,0.22712,-0.43609,0.32913,0.17607,0.074057,0.074062,-0.20648,-0.027974,0.074038,0.074044,0.023029,-0.13004,-0.23205,0.048555,0.96685,-0.18101,-0.69113,1.5535,-0.9718,-0.43612,-0.46159,-0.20653,-0.078977,0.50769,-0.28305,0.48219,-0.23203,0.76273,0.40567,-0.79321,-0.69121,-0.18101,0.30363,-0.02798,0.074038,-0.10449,0.22713,0.048549,-0.23205,-0.053464,0.099595,0.12505,-0.25756,-0.10449,0.12507,0.12509,-0.10447,-0.181,0.074013,0.60971,0.048525,-0.30859,-0.13,0.09957,-0.23203,-0.28304,0.074075,-0.28305,-0.23202,1.5535,0.22706,0.074057,-0.99726,-0.66565,0.099595,-0.13004,0.09954,0.35465,-0.23205,-0.18103,0.30361,0.15058,-0.38508,-0.30856,-0.002461,-0.18097,0.25263,0.4311,0.15057,-0.23202,-0.1045,0.023054,-0.027974,-0.28306,0.12508,0.1506,0.023054,-0.46164,2.0381,0.35467,-0.15549,-1.4564,-1.0483,-0.28303,0.15055,0.45669,0.048573,-0.20653,0.32912,-0.18102,-0.053482,-0.07899,0.40563,0.023041,0.22711,-0.15549,0.074069,0.32913,-0.23203,-0.28303,-0.25756,-0.18105,-0.25756,-0.027969,0.30364,-0.23201,-0.46159,0.35465,0.60972,0.45666,-0.002472,-0.33409,-0.7422,0.48217,-0.25752,0.048567,-0.053482,0.099546,-0.002485,-0.25756,0.60971,-0.10448,-0.20648,0.048536,-0.028023,0.20159,-0.18101,-0.33402,-0.002448,0.27811,-0.15555,-0.028011,0.43116,0.048585,-0.002412,0.35465,-0.13004,0.15056,-0.28308,0.55871,-0.28304,-0.10448,-0.41059,-0.25754,0.09957,0.074051,0.048561,0.20158,0.12504,-0.18105,0.38013,-0.23203,-0.25754,-0.41058,0.38016,0.20161,-0.23202,-0.41058,-0.15553,-0.028005,-0.25754,-0.053476,0.32915,0.074038,0.43113,0.023035,-0.33404,-0.078966,-0.35959,-0.23207,0.17607,-0.1045,0.4822,0.63521,-0.15554,-0.30856,0.048567,-0.28302,-0.53812,-0.20653,-0.7422,0.73725,0.43117,0.25262,-0.053464,-0.053495,-0.46161,-0.30856,0.023059,0.17607,0.20158,0.20159,-0.23202,-0.28306,-0.002491,0.15059,-0.12999,-0.25755,-0.20654,0.22713,0.30364,0.125,0.3291,0.20164,-0.2065,0.023065,-0.13,-0.41058,-0.38508,-0.33406,0.17607,0.27809,-0.053488,0.43114,-0.28304,-0.23202,0.074075,0.048536,0.023035,0.15057,-0.078972,-0.027974,0.12506,0.12506,0.32917,-0.33404,-0.35956,0.15056,-0.30857,-0.51261,0.074062,0.25259,0.43117,-0.20653,-0.002443,-0.48708,-0.078984,0.32914,-0.002454,0.25262,-0.64018,0.20158,0.30363,-0.18099,0.12509,-0.28305,-0.18101,0.71175,-0.15552,-0.1045,-0.10445,0.12505,0.32912,-0.12996,0.22712,0.43116,-0.41057,-0.41058,-0.74218,0.38011,0.40561,0.63523,-0.15551,0.32907,-0.25758,-0.38505,0.048549,0.17608,-0.15553,-0.25756,0.27811,-0.15551,0.048549,0.1506,-0.053464,0.30364,-0.58914,0.09954,-0.027993,0.2016,0.17607,-0.1045,-0.33405,-0.12999,0.38016,-0.43609,-0.46158,-0.2065,0.96681,0.3036,0.12506,-0.43612,-0.46163,-0.30858,-0.15551,-0.30852,0.04858,0.023065,0.15059,0.32912,0.17606,-0.30856,0.30361,0.048561,-0.053464,-0.30853,-0.078977,-0.13001,-0.10451,-0.028005,0.40563,-0.1045,0.35464,-0.28303,0.27813,-0.35957,-0.15553,-0.15552,-0.20649,-0.053495,-0.079014,0.43118,-0.1045,0.81378,-0.4616,0.09957,1.7321,-0.053488,-0.81873,-0.58916,-0.20652,0.023041,0.074038,0.074038,-0.002472,-0.10447,-0.15548,0.86477,0.25262,-0.23209,-0.25759,-0.61463,0.30365,0.12509,0.27815,-0.23202,0.20159,-0.33406,-0.33404,0.99232,0.074038,0.58421,-0.38508,-0.30856,-0.18101,-0.002448,-0.81872,-0.53814,0.023029,0.2271,0.63524,0.15059,0.91581,0.099564,0.25261,-0.10449,-0.38506,-0.64015,-0.13002,-0.41061,-0.30856,0.20157,0.25259,0.09954,0.27812,-0.10448,0.048543,0.17606,0.40565,-0.48713,0.30362,-0.4616,-0.20652,-0.053513,-0.15548,0.55872,-0.74218,0.17608,0.22709,-0.053482,-0.30857,-0.38508,-0.15548,0.27813,0.099619,-0.027969,-0.28307,-0.05347,0.17607,0.15056,-0.3851,-0.48711,0.35464,1.0689,0.43118,-0.56363,-0.30856,-0.1045,-0.28303,0.50765,0.023041,-0.28303,0.15062,-0.23205,-0.38506,-0.41058,-0.20653,0.023035,0.63521,-0.23205,0.099546,0.38013,0.2781,-0.20651,0.1251,-0.10445,-0.56358,-0.18101,0.30358,0.40563,-0.12998,-0.027962,0.048573,-0.027962,0.048543,-0.53811,-0.053451,-0.15551,-0.1045,0.30361,-0.33407,-0.71668,1.2219,0.20156,0.12505,-0.28305,-0.89523,-0.10448,0.48218,0.66074,0.50766,-0.027993,-0.7167,-0.25757,0.12509,0.12505,0.023035,-0.053506,0.22708,0.074038,0.20158,-0.002461,-0.23203,-0.15553,-0.10447,0.12511,-0.13002,0.074038,-0.46161,0.074044,-0.28303,0.048573,0.43115,1.3239,0.023078,-0.15554,-0.13002,-0.48711,-0.46159,-0.20653,0.32912,0.1761,0.32915,0.89032,-0.69115,-0.053476,0.048561,-0.002454,0.074057,-0.002461,-0.07899,-0.18099,-0.15548,-0.002479,0.048549,-0.13,0.20159,-0.18102,-0.078959,-0.079002,-0.079002,-0.078996,-0.027956,-0.002461,-0.053464,0.20161,0.048567,-0.15551,0.55873,0.023047,-0.30856,-1.1248,-0.12999,-0.25753,-0.38508,0.17609,0.66072,-0.027962,-0.1555,0.1761,0.17606,-0.027962,-0.002448,0.20161,-0.053476,0.17609,0.30359,-0.002479,0.048536,-0.20654,-0.0535,0.30361,-0.41058,-0.53811,-0.12999,0.32913,0.32912,-0.02798,0.099552,-0.10449,0.60971,-0.20655,-0.079008,-0.10449,-0.053482,-0.33409,0.71175,0.023029,0.023005,0.099521,-0.48711,-0.05347,0.023054,0.20159,0.40565,0.17607,-0.027987,-0.46163,-0.69119,-0.13001,0.96681,-0.30855,-0.20653,0.074062,-0.10449,-0.10447,-0.25757,-0.15554,0.20161,0.12512,0.43117,-0.053476,-0.28305,-0.002497,-0.053495,-0.027956,0.099577,-0.28302,0.048555,-0.20652,-0.079008,0.12507,0.43114,-0.20653,0.074075,-0.33406,-0.027974,-0.053482,0.25263,0.048567,-0.10449,-0.1045,-0.81871,0.074044,0.074051,1.1454,-0.002454,-0.18102,-0.4106,0.12505,0.12505,-0.027998,0.074062,0.20162,-0.181,0.2016,-0.1045,0.15057,-0.15551,-0.18098,-0.1045,0.40562,-0.12999,-0.23202,-0.23202,-0.69116,-0.078996,0.55867,0.074038,-0.027962,-0.18105,0.78826,-0.10452,-0.027993,0.048531,-0.28305,-0.078977,-0.23205,-0.1045,0.86478,-0.13002,-0.053476,-0.48708,0.20161,-0.10446,0.023047,-0.002461,-0.002461,0.20159,0.048531,-0.13002,-0.002485,-0.053495,0.32915,-0.10446,-0.15551,-0.027969,-0.079002,0.099564,-0.25756,0.50768,0.25262,0.074075,-0.4106,-0.053513,-0.18101,-0.10447,-0.053464,-0.23202,-0.10448,0.073977,0.15055,-0.10448,-0.28302,0.30362,-0.18101,0.25263,-0.002485,0.048536,0.78825,-0.86973,-0.18101,-0.10449,-0.1045,0.30363,-0.002467,-0.66567,-0.97177,0.20157,0.074044,0.89031,0.5332,-0.002485,-0.4361,-0.43608,0.15058,0.15057,0.27812,0.048567,-0.69117,0.32913,-0.15548,-0.20652,0.074044,0.04858,-0.30855,0.20159,-0.1045,0.20159,0.074038,0.30361,0.023035,-0.079002,-0.13003,-0.25754,0.023029,-0.053488,-0.25753,-0.18101,0.60971,0.89024,-1.2269,-0.35955,-0.053488,0.099577,0.53322,0.48219,-0.30856,0.5332,0.27812,0.27808,-0.58916,-0.46162,-0.25754,-0.38507,0.023041,0.81378,-0.053488,-0.13001,-0.25753,0.048518,-0.28304,0.099595,0.048549,-0.078984,-0.053476,-0.25754,0.38016,-0.053458,0.38014,0.20156,0.17607,-0.18101,-0.28306,0.45666,-0.41058,0.94131,-0.20652,-0.18101,-0.3851,-0.10449,0.074057,-0.4106,0.2271,0.50768,-0.15551,-0.10452,0.32913,0.86476,0.71176,-1.0992,-0.56368,-0.41066,0.048561,-0.027956,0.4822,0.15059,0.048573,-0.18101,-0.10451,0.27808,0.20155,-0.33406,-1.3033,0.73729,0.15059,-0.56362,0.023072,0.25258,-0.053482,0.48216,-0.027962,-0.10448,-0.38506,0.68626,-0.23204,-0.56364,-0.43612,0.86478,0.048549,0.2526,-0.33406,-0.18101,0.023035,0.074069,0.27811,-0.02798,0.074093,0.099521,-0.053513,-0.13001,-0.002479,0.2271,0.1761,-0.64014,0.45668,-0.51262,-0.23203,-0.05347,-0.027993,0.04858,0.45661,0.22707,0.30361,0.074093,-0.20652,-0.38505,-0.43607,-0.33405,0.45667,-0.002479,0.023029,0.15056,0.074033,-0.35957,0.023059,0.30362,1.2219,-0.43608,-0.28306,-0.51264,-0.53812,-0.079008,0.45668,0.71181,0.20156,-0.7677,-0.61463,-0.13,0.32912,-0.18105,-0.33409,0.1506,0.30363,-0.35959,-0.05347,0.12507,0.48216,-0.027956,-0.30856,-0.002472,0.023041,0.48219,0.048561,-0.002448,-0.10449,0.023041,-0.64015,-0.002461,0.20156,-0.28307,-0.027969,0.58422,-0.15548,0.2271,0.32912,-0.20654,-0.46161,-0.38508,0.40566,-0.25752,-0.46165,0.35458,-0.053464,-0.35956,0.25267,-0.38504,-0.46154,0.17608,0.40561,0.20157,-0.25754,-0.13002,-0.18103,0.023041,0.023041,-0.002497,0.15056,0.45666,0.81377,-0.283,-0.30863,-0.23205,-0.74214,-0.56358,-0.23203,0.048549,-0.053482,0.35462,0.83926,0.048536,0.48214,-0.079014,-0.38509,-0.078996,-0.12999,0.45667,0.76275,0.09957,0.20161,-0.38508,-0.33406,-0.23201,-0.35957,0.71176,-0.28305,-0.30858,-0.56364,0.17608,0.099546,0.17606,0.2526,-0.13001,0.17606,0.12508,0.12508,-0.027969,-0.35957,-0.027987,-0.13002,-0.15554,0.15059,-0.078935,-0.13001,0.022974,-0.23202,-0.10446,0.022974,-0.35958,-0.15547,0.1251,0.81378,0.5587,-0.35954,-0.94627,-0.20655,0.20158,0.40565,-0.002461,-0.76769,-0.23205,0.30363,0.048549,0.15057,0.099583,0.12509,0.60973,-0.25754,-0.25753,-0.23205,0.15057,0.12503,-0.13002,-0.41057,0.25263,-0.18105,-0.33407,0.7628,-0.002454,0.27812,0.5332,-0.51259,-0.18101,0.94129,-0.25754,-0.23202,-0.23201,-0.002491,-0.027998,-0.18105,0.99231,0.09954,-0.079008,-0.48711,0.38016,0.60969,0.074038,-0.23204,-0.15553,-0.25755,-0.4361,-0.25754,-0.5126,0.27812,1.426,0.12509,-0.38508,-0.53814,0.6352,-0.28306,0.12505,-0.027993,-0.3851,-0.41061,0.074057,0.30363,0.3291,0.50766,-0.33402,0.4311,0.40555,-0.25753,-0.66562,-0.38505,0.66077,0.94133,-1.0228,-0.58915,-0.18105,0.048536,-0.053506,1.2219,0.074087,-0.28305,0.25254,-0.002454,-0.66565,-0.18101,-0.053464,-0.002461,0.40565,-0.13002,0.30363,-0.46159,0.48219,-0.61465,-0.07899,0.074038,-0.15552,0.074044,0.17606,-0.15548,0.5587,0.40566,0.2526,0.38016,-0.69119,-0.43609,-0.46162,0.099497,0.048536,0.45666,-0.18103,-0.078972,-0.20653,0.20159,0.35464,-0.07899,-0.002491,0.048518,-0.002503,-0.69121,0.73726,-0.18101,0.20161,-0.33405,0.048555,-0.07899,-0.027987,-0.38511,0.43115,0.38016,-0.58914,0.023054,-0.078984,0.12507,-0.385,0.50772,0.048494,0.20153,-0.078959,-0.053495,-0.30851,-0.10452,0.048531,0.17612,0.20161,-0.38507,-0.30856,-0.027987,0.099546,0.09954,-0.027998,-0.002454,1.0434,0.55872,-0.46159,-0.33409,-0.64013,-0.8442,0.15059,-0.002467,0.60972,0.2271,0.17609,-0.05347,0.50766,-0.15553,0.15059,-0.41057,-0.51261,0.53316,-0.13001,-0.23202,0.074075,-0.20652,-0.053495,-0.13002,0.074062,0.099564,-0.053476,-0.10447,-0.07899,0.15056,-0.1045,-0.053476,0.38016,0.48221,-0.053482,-0.30856,-0.51267,0.176,-0.41058,0.048561,-0.15548,-0.86967,0.023029,0.20158,0.023041,0.5332,0.25261,-0.4361,-0.33411,0.58417,-0.232,-0.46154,0.22704,0.35459,-0.18101,0.15056,-0.1045,-0.10447,-0.33403,-0.81868,0.38015,0.2271,1.0944,-0.027974,-0.15553,-0.61467,-0.23205,0.50769,-0.078984,-0.46159,0.17612,-0.61463,0.40568,-0.56364,0.17607,0.22708,0.2526,-0.053464,-0.18101,0.17605,-0.027956,0.074075,-0.053488,-0.10449,-0.41057,0.53318,0.17604,0.2271,-0.027987,-0.078977,-0.10449,0.023059,-0.28303,0.023029,0.30353,0.35463,-0.078996,-0.20653,-0.30854,0.1506,0.45669,0.30361,-0.25755,-0.84424,0.63523,-0.33409,-0.38506,-0.027993,0.91573,-0.41061,-0.10449,-0.33403,-0.25751,0.4567,-0.027969,0.43116,0.45662,-0.3851,-0.43607,-0.12999,-0.12999,-0.20653,0.15059,0.023047,0.66075,-0.07899,-0.1045,-0.079014,-0.48712,0.099559,-0.181,0.68626,-0.41057,0.73717,-0.12998,-0.66566,-0.18101,0.66074,-0.181,0.15058,-0.41057,0.074062,-0.18104,-0.20655,-0.28303,-0.12999,0.023041,0.22707,-0.10447,0.023078,0.55872,-0.41055,-0.6401,-0.232,0.22706,0.30358,-0.053506,-0.33409,-0.33406,0.83927,-0.5126,-0.078959,0.074087,0.099559,0.25262,0.074038,-0.28306,0.099552,0.099583,0.048573,0.78824,-0.35966,-0.23202,-0.33404,0.17611,0.12509,-0.46161,0.27812,-0.20652,-0.053446,0.20161,0.76269,0.58422,-0.10449,-0.12999,-0.15554,-0.23203,-0.43606,-0.15552,-0.079026,0.048561,0.20162,0.20154,0.3291,0.023047,-0.18103,0.32913,0.60973,-1.0483,-0.30854,-0.92073,0.023059,0.12508,0.2271,0.43117,0.3291,-0.079021,0.12505,0.53318,0.25261,-0.10449,-0.51263,-0.64017,-0.25754,0.15059,-0.002485,0.38013,0.25262,-0.23199,0.074118,0.9412,0.20158,-0.46159,-0.33404,-0.51257,-0.28309,-0.12998,0.55872,0.22705,-0.20655,-0.5891,1.0434,-0.51261,-0.15549,-0.18098,-0.027998,0.22705,0.12505,-0.078984,0.20159,-0.053476,-0.2065,-0.61465,-0.30856,1.0433,0.048549,-0.1555,-0.027974,-0.20655,0.074051,-0.10447,-0.12999,0.099552,0.25259,-0.38506,-0.33408,-0.0535,-0.053488,0.25264,-0.38509,1.0178,-0.027925,0.099588,-0.5126,-0.02795,-0.027974,-0.35962,-0.18102,0.32914,0.32913,1.1709,-0.18101,-0.28304,-0.8187,-0.07899,0.09957,0.12502,0.27814,-0.25751,0.38016,0.17612,-0.33404,-0.4616,-0.30858,0.074069,0.17605,0.12507,0.074051,0.50767,-0.15551,-0.053458,-0.51255,-0.25756,0.12501,0.2271,0.023041,-0.07899,-0.053476,-0.002461,0.45667,-0.23202,-0.5381,0.48219,-0.58916,0.9158,0.15056,-0.18107,-0.002521,-0.25754,-0.12999,0.12511,-0.181,-0.23204,-0.002472,0.78825,0.15057,-0.1045,-0.30856,-0.48711,-0.05347,0.89031,0.023047,-0.33409,-0.10449,-0.181,0.048585,0.27811,-0.58914,1.1454,0.38016,-0.5381,-0.41055,-0.23199,0.048561,0.35461,-0.078984,-0.48712,0.22707,-0.079014,0.55868,-0.74221,-0.13,-0.10449,0.048549,-0.027998,-0.25754,-0.027993,0.022998,-0.002448,0.023054,-0.053488,0.76264,0.30366,-0.74214,1.0944,-0.10449,-0.56363,-0.20655,-0.15549,-0.12999,0.27813,-0.1045,0.17607,-0.079008,-0.20653,-0.1555,-0.078984,-0.027969,0.2271,0.73723,0.17607,-0.41058,0.66075,-1.0227,-0.53807,0.48213,0.30359,-0.027962,0.048567,0.45667,0.35464,-0.5891,-0.48707,-0.18101,0.15059,0.63521,0.12506,-0.053427,0.35459,0.12503,-0.10445,-0.43609,-0.61462,-0.15551,-0.20655,-0.027987,-0.027974,0.099546,0.3291,-0.027962,0.35466,0.048561,-0.18103,1.375,-0.61464,-0.30857,0.15055,-0.33403,-0.43612,0.43107,-0.66564,1.579,0.43115,-0.35958,-0.30853,-0.41057,0.22709,0.15057,-0.13003,-0.25755,0.074069,0.074051,0.2526,0.53319,-0.35956,-0.41058,-0.35959,-0.4106,0.074062,0.6097,-0.12998,0.81375,0.25262,0.22707,-0.079002,-0.23203,-0.20651,-0.18103,-0.41058,0.91579,-0.13,-0.69116,-0.51261,0.27812,0.27812,0.15057,-0.002503,-0.053476,0.63523,-0.46159,-0.25751,-0.181,-0.027969,-0.18102,-0.35958,-0.38506,0.50758,0.12502,-0.25752,1.4005,-0.33405,0.25262,-0.078984,-0.64015,-0.61458
-0.53812,-0.18104,-0.079002,0.20158,0.074033,0.30361,0.63523,-0.30854,0.81378,-0.35957,-0.2065,-0.13001,-0.30857,0.17609,-0.33405,-0.30855,-0.20653,-0.28306,0.30363,0.40566,0.32915,-0.18101,0.2016,-0.15553,-0.053495,-0.41061,0.2271,0.50769,0.023035,-0.46158,0.55871,-0.41058,-0.053495,0.20158,-0.76771,0.55869,-0.30856,-0.3851,-0.3851,0.60971,0.81379,-0.078984,-0.002485,-0.13001,-0.28307,-0.002467,0.048555,0.20159,0.20159,0.023047,0.12509,-0.027969,0.15059,-0.20653,-0.58914,-0.30857,0.074038,0.32912,0.40566,-0.078972,-0.20652,0.074038,0.38017,-0.28305,0.048531,0.12507,0.30364,-0.51263,-0.46161,-0.13002,-0.027969,-0.1555,0.2271,0.048536,0.38014,-0.38508,0.15058,0.53317,-0.02798,-0.4616,-0.02795,0.15059,-0.33408,0.63522,-0.48709,-0.13002,0.074038,0.20161,0.023054,0.048531,-0.25753,-0.33405,-0.18102,-0.10451,0.023035,0.32913,-0.15549,-0.13,0.2526,0.27812,-0.15551,-0.4871,-0.23204,0.22709,0.40566,0.15057,-0.23202,-0.15551,-0.13002,-0.18103,0.32914,0.048567,-0.078984,-0.35957,-0.23205,0.048531,0.32913,0.074069,0.22711,1.528,-0.25754,-1.0738,-0.15551,-0.079014,-0.25754,-0.079008,-0.002472,0.27811,0.099583,-0.10449,0.17609,0.17607,0.09957,0.074062,-0.053464,-0.13,-0.002479,-0.002485,0.023047,0.09957,0.048561,-0.30854,0.048561,-0.38508,-0.078984,0.023023,0.048536,0.074069,-0.002448,-0.56364,-0.25754,0.30361,1.4515,-0.15552,-0.30856,-0.61464,0.27812,0.023047,-0.027974,0.048555,0.023029,-0.002485,0.048536,-0.002472,-0.18101,0.023041,0.12509,0.86482,-0.38508,-0.46161,0.30361,0.76277,-0.07899,0.5332,-0.61465,-0.92075,-0.64015,-0.1045,0.30361,0.38013,0.38014,0.12508,-0.20651,-0.002443,0.074057,0.048518,-0.053482,-0.027956,0.12509,-0.18101,-0.20652,0.099546,0.023035,0.023047,0.023054,0.023035,-0.002491,-0.078984,-0.30854,-0.58914,0.58421,0.048549,-0.027956,-0.30858,0.15057,0.38016,-0.35956,0.99234,0.86479,-0.66566,-0.18102,-0.25753,-0.1045,-0.027993,0.32912,-0.13001,0.074051,-0.10448,-0.1045,0.2271,-0.30856,0.15058,0.20161,0.63524,-0.35958,-0.0535,0.09954,0.023041,-0.07899,-0.20651,0.12509,-0.027969,0.15056,0.15056,-0.46161,1.5535,-0.5126,-0.58913,-0.64016,-0.20653,0.048536,-0.15551,0.76277,0.27814,-0.053464,-0.079002,-0.13002,-0.13002,-0.078984,0.38016,-0.28303,0.074057,-0.1045,0.15056,-0.53812,0.15057,-0.25753,-0.02795,-0.1555,0.20159,0.5587,0.66074,0.15056,-0.30857,-0.46162,-0.053488,-0.35956,0.1506,0.48218,0.09957,0.12506,-0.35958,-0.35957,-0.46159,-0.053476,-0.13,0.30361,0.48218,0.20158,-0.002461,-0.002454,0.099559,0.22712,0.35465,-0.35958,-0.20655,-0.15553,0.25261,0.023054,-0.61463,-0.61463,0.2016,-0.38508,0.40565,0.38014,0.2271,0.50769,-0.1555,-0.33405,-0.41058,-0.23202,-0.027993,-0.079008,-0.30857,0.78827,-0.053495,0.35464,0.17609,-0.078972,-0.35955,-0.13,-0.027987,0.048531,0.099564,0.074057,0.12506,0.1761,-0.33405,-0.51261,0.45668,-0.053476,0.074038,-0.76771,0.58419,-0.28306,0.25262,0.8393,-0.20653,-0.25756,-0.33408,-0.15551,0.53321,-0.35957,-0.15553,-0.078996,0.66073,-0.25753,-0.20652,0.30361,-0.027969,0.023054,-0.10449,0.15056,0.17607,-0.10449,-0.002472,-0.079008,0.22711,-0.027962,-0.15549,-0.053476,-0.15551,0.32913,0.2271,-0.13,-0.61465,0.17609,0.38014,-0.23205,1.2474,-0.027969,-0.4871,-0.20653,-0.15551,0.17606,-0.027974,-0.38508,-0.07899,0.20159,0.099583,-0.15551,0.45666,-0.027987,-0.18102,-0.28303,-0.002472,0.9413,-0.28307,0.15059,-0.078977,-0.20653,-0.15551,-0.18103,-0.43609,0.09957,0.40566,0.2781,-0.10452,0.2526,0.2016,-0.56361,0.96683,-0.76769,-0.46162,0.074062,-0.078996,-0.1555,-0.12999,0.099564,0.12507,0.15057,0.20158,0.12507,0.12509,-0.20652,-0.28304,-0.18102,0.099546,0.12505,0.25261,-0.027956,-0.053458,-0.05347,-0.078996,-0.35959,-0.28307,0.023047,0.099564,0.25262,0.4822,-0.12999,0.58422,-0.71668,-0.46162,-0.35959,0.023035,-0.002467,-0.46159,0.5587,0.43116,-0.20652,0.86482,-0.43609,-0.079008,-0.38509,-0.12999,-0.078996,-0.23205,0.074062,0.22711,-0.027956,0.40565,-0.10451,-0.07899,-0.10449,0.048555,-0.13,-0.18102,0.15056,-0.10451,0.38016,-0.027969,-0.20652,-0.12999,-0.18101,-0.027993,0.2271,0.68624,-0.35956,-0.66566,-0.38509,0.2016,1.1199,-0.20651,-0.35956,0.15058,-0.027993,0.8393,-0.181,-0.58914,-0.66566,-0.027987,0.71174,-0.20653,-0.05347,0.099559,0.48216,0.023041,-0.027969,0.27812,0.15057,-0.07899,-0.38506,-0.35956,-0.18101,0.074062,0.43115,0.17609,0.15059,0.023029,-0.027969,-0.10448,-0.13001,-0.15553,0.40566,-0.027974,-0.56363,-0.07899,0.074051,0.1232,0.12509,0.023047,0.30363,0.25261,-0.43609,0.45666,-0.18104,0.17608,-0.18101,-0.1045,0.099552,-0.053482,-0.23203,0.099577,0.2271,0.3291,0.17608,-0.078972,-0.20652,-0.10449,-0.002461,-0.1045,0.048536,-0.053482,-0.002467,-0.002472,-0.053482,-0.027962,-0.10447,-0.002461,0.099577,0.048536,0.43114,-0.10453,-0.053482,-0.18102,-0.18102,-0.15549,0.43118,0.20161,-0.58914,0.71175,-0.23204,0.099564,1.0178,-0.89526,-0.81873,0.27812,0.023041,0.099583,-0.15549,-0.07899,0.27812,1.0688,-0.33407,-0.002491,0.023041,0.023041,0.048567,-0.61465,-0.23205,-0.20652,0.25262,0.25262,0.023041,-0.079002,-0.027993,0.048543,-0.28305,0.71177,0.27813,-0.41059,0.12507,-0.20653,-0.25756,-0.25757,0.2781,0.074057,-0.23204,0.17609,0.22712,0.1506,-0.053482,-0.30856,-0.25755,-0.13,0.09957,0.074062,0.6097,-0.10449,-0.13,-0.027962,0.71175,-0.18103,-0.20655,-0.23204,-0.18101,-0.078977,0.023035,0.048555,0.15058,-0.10449,0.12506,0.048555,-0.20652,-0.20652,-0.30856,0.55871,0.30362,0.43115,-0.15551,-0.18102,-0.181,-0.20652,0.023047,-0.18106,0.048536,-0.41054,0.40562,0.43112,0.074124,-0.48706,-0.25759,0.15055,1.1709,0.22713,-0.86975,-0.61465,0.074057,-0.078959,0.63525,-0.20655,-0.20653,-0.33409,0.32912,0.40568,-0.4871,0.30362,-0.027993,-0.027962,-0.64013,0.66079,1.3749,0.073917,-0.53807,-0.232,-0.30857,-0.18105,-1.2523,0.71176,1.2475,-1.0482,0.22697,0.17604,0.1506,-0.25751,-0.10454,0.2016,0.20161,-0.81868,-0.30853,1.579,0.20158,0.43115,-1.0483,-0.4871,-0.30854,0.43113,0.45666,-0.56365,0.074038,0.32912,-0.02798,0.09957,-0.18101,0.50772,-0.66565,-0.99726,-0.20656,0.68622,0.58421,-0.56361,1.7321,-1.0993,-0.99725,0.074044,0.63522,0.023041,-0.43609,-0.33405,-0.56363,0.5332,0.25259,0.20157,0.023035,0.66074,-0.4616,-0.86974,-0.12998,-0.02792,0.78829,-0.23205,0.2526,-0.13002,0.099552,-0.69115,-0.43609,0.17602,0.074044,0.12512,0.25265,0.17615,0.68617,0.099546,-1.2779,2.1912,-0.28305,-0.5381,-0.027962,-0.43612,-0.30859,-0.33404,0.15058,-0.078984,0.17609,-0.028005,0.58421,-0.25755,-0.07899,0.15056,-0.20654,0.32915,0.099588,-0.30859,2.2167,0.30364,-2.0686,0.73725,-0.7932,-0.53812,1.6556,-0.28305,0.35458,-0.46159,-0.38506,-0.12999,-0.25754,0.30363,0.27815,-0.002467,0.40563,0.20159,-0.002454,-0.58915,0.15056,0.35464,1.1709,0.40565,-0.64014,-0.43608,-0.38505,-1.1503,-0.51265,0.074057,0.32914,0.78826,-0.30856,0.40562,-0.25751,-0.25752,-0.12997,0.68624,0.09954,-0.078996,0.22708,-0.25757,0.48216,-0.05347,-0.48714,-0.53812,-0.35956,-1.2523,2.2422,0.20163,-0.56362,0.35464,-0.30855,0.30363,0.89029,-1.0993,-0.35964,0.40564,0.25263,-0.38507,-0.79321,-0.002485,0.53319,0.12507,-0.30858,1.0688,0.38016,-0.53812,-0.33405,-0.51257,0.17607,0.89025,-0.58913,-0.46156,-0.181,0.1506,-0.20655,0.43114,0.17608,-0.053476,-0.74217,0.63523,0.2526,0.66072,-0.18103,0.074069,-0.053464,-0.33406,-0.35956,-0.25756,-0.33409,-0.25759,0.50768,-0.20652,0.78829,1.0178,-0.56362,-0.79319,-0.12999,0.35462,-0.48711,-0.25758,0.86481,-0.35956,-0.56361,-0.69116,0.48219,0.32915,0.83928,0.12507,-0.56364,0.76277,-0.30856,-0.43611,-0.1555,-0.078953,-0.41055,-0.25755,-0.66567,0.25257,0.94132,0.96682,-0.10448,-0.027944,-0.23208,-0.64015,-0.027956,-0.33411,0.22713,0.96684,-0.02798,-1.2013,-0.53812,0.63521,0.074038,0.38014,-0.027944,-0.002467,0.38015,-0.28306,-0.23204,-0.35957,-0.4616,0.17609,-0.079026,0.58419,-0.23204,-0.30849,0.27809,0.96679,-0.078977,-0.38507,-0.10447,-0.66565,-0.20653,0.50766,0.32913,0.81379,-0.66566,0.38015,0.099564,-0.58916,-0.33407,0.30363,-0.69116,-0.53811,-0.20651,0.1761,0.48219,1.0944,0.78827,-1.0228,-0.74222,-0.38509,0.074057,0.27814,-0.027944,0.43117,-0.4871,-0.35959,1.2729,-0.28306,0.83928,-0.71669,-0.23201,0.023072,-0.30855,0.53318,-0.13002,-0.71668,-0.56362,0.27809,0.099601,-0.027956,0.58411,0.43113,0.074075,-0.18101,0.074062,-0.35954,-0.25751,1.6045,-0.002454,-0.56365,-1.1248,-0.002485,0.48218,-0.35959,0.60973,-0.18102,-0.46159,0.22712,0.074062,-0.20651,-0.64015,-0.30855,0.17609,0.63523,0.43117,-0.18102,-0.13,0.27811,-0.71667,-0.10447,-0.10445,0.48219,-0.23202,-0.002448,-0.66567,-0.56364,0.30363,1.2474,-0.28303,-0.18099,0.32913,-0.33406,0.15057,-0.07899,-0.48711,-0.74218,-0.15551,-0.20653,-0.027998,-0.053482,-0.002467,0.15058,0.17609,0.55869,1.2219,-0.79312,0.45655,-0.18117,0.17611,-0.64013,-0.35954,-0.23202,-0.23202,-0.078996,-0.15553,0.99229,0.78823,-0.79323,0.53318,-0.81873,0.43115,-0.43612,-0.28305,-0.28305,0.023047,0.78829,-0.1045,0.20159,-0.38509,0.22712,-0.078984,-0.4616,0.25263,-0.23204,-0.33409,1.2474,-0.38506,-0.51264,0.81377,-0.46161,-0.053488,-0.33406,-0.1045,0.2526,0.27809,-1.0228,-0.4106,0.3036,0.12504,2.6503,-0.053464,-1.5329,-0.23199,-0.028029,-0.53821,0.25257,-0.053433,-0.15548,0.17609,0.15061,-0.10449,1.528,-0.23204,-0.33409,-0.18101,-0.15551,-0.002467,0.38016,0.1506,0.099583,-0.25754,-0.181,-0.66565,-0.23203,0.25265,0.76278,-0.15551,-0.28309,0.94129,-0.69118,0.023054,-1.0228,0.73726,-0.053488,-0.28306,-0.79319,0.43117,0.023047,-0.002472,0.91582,0.63521,0.3036,-0.028005,-0.20653,-0.23203,-0.002461,0.32912,-0.15552,-0.79321,-0.81871,0.12506,0.35455,-0.053476,1.0179,-0.23203,0.50769,-0.7167,0.35462,0.099546,-0.66572,-0.71668,0.023059,0.25263,1.7066,-0.74219,-0.35958,0.38016,-0.053495,0.099577,-0.64017,0.81379,0.43117,-0.97178,-0.18104,0.32913,0.71178,-0.97176,-0.41058,-0.71668,0.86476,0.53321,0.76279,-0.15552,-0.20653,-0.15552,-0.38508,0.023035,-0.66569,0.53323,0.40566,0.22711,-0.053458,-0.30854,-0.10447,0.048561,0.074038,0.96682,-0.76765,0.12503,0.27807,-0.81871,0.76281,-0.28302,0.50769,-0.25757,-0.30858,-0.15553,-0.76771,0.4822,0.22713,0.12509,-0.25759,-0.43609,-0.15551,-0.15549,0.17609,0.32914,0.12505,-0.28307,1.1199,-0.10452,-0.89523,-0.81871,-0.078996,-0.10449,1.0178,0.63522,-0.69116,-0.12999,-0.84422,0.50772,-0.078984,-0.28305,0.074062,0.73726,0.25262,-0.48712,-0.13,-0.35958,0.68625,0.53322,-0.079014,-0.053525,-0.002412,-0.23209,0.5332,0.86479,-1.3034,0.32916,0.63523,-0.4106,0.20159,-0.61465,-0.18102,0.68623,-0.43609,0.30365,0.099577,-0.30856,-0.4361,-0.1045,0.22711,-0.61462,0.50771,0.55865,0.074038,0.71176,-0.69118,-0.48713,0.22708,-0.18103,-0.43613,-0.28307,0.17607,0.2526,0.86478,0.45664,-0.41059,-0.64015,-0.66566,-0.48713,0.30361,0.35464,-0.078977,0.27812,0.50771,0.12514,0.27811,-0.81878,0.4822,1.2984,-0.4871,0.48219,-0.66566,-0.28305,-0.48711,-0.23204,1.3749,-0.3851,-0.28305,-0.64015,0.48219,-0.10449,0.20161,-0.053488,-0.002461,-0.10447,-0.25756,0.63523,0.94135,-1.8135,1.1454,0.25262,0.278,-0.027938,-0.30853,-0.56362,-0.58915,-0.15551,-0.33406,-0.053482,0.40565,0.048555,-0.30856,-0.078984,0.71176,-0.13,1.1709,0.17609,-0.81871,-1.584,0.15059,1.0689,0.86482,-0.05358,-1.3034,0.38016,0.48218,-0.8187,-0.23202,-0.0535,0.074062,0.30364,0.023078,0.27811,0.35462,-0.078984,-0.027974,-0.027944,-0.027962,0.074069,-0.25753,0.099588,-0.46157,0.32915,-0.76768,-0.58916,-0.20653,1.477,-0.35956,0.22708,0.12502,-1.0228,0.099564,-0.1555,0.048555,0.60973,0.30363,-0.078996,0.048561,-0.25755,0.023047,-0.35956,0.04858,0.53325,-0.15553,0.27811,-0.1555,-0.12991,0.27814,0.38008,-0.76767,-0.53804,-0.6147,1.2729,0.86482,-0.35956,-0.64017,-0.51263,-0.51262,-0.51263,-0.05347,0.58424,0.76278,0.1251,0.20162,-0.76768,0.074038,0.32915,-0.28306,-0.079002,0.20159,1.0944,-0.38507,-0.33408,-0.18103,-0.20655,-0.15552,-0.28305,0.30358,0.2781,0.074062,-0.00243,-0.5891,0.91584,1.1199,-0.48713,-0.20655,-0.84423,-1.2523,-0.027993,-0.33409,0.66073,0.48218,0.15059,0.2016,-0.25752,-0.15548,-0.02795,0.12504,0.94133,0.60972,-0.79316,-0.4871,-1.0738,0.81379,-0.56365,-0.4616,0.12505,-0.25756,1.2984,-0.181,-0.33399,0.27806,0.94129,-0.84421,-0.84422,0.76276,-0.02798,0.22711,0.73728,0.58422,-0.86972,-0.20653,-0.28308,-0.20655,-0.51259,0.78828,0.68626,-0.66565,1.324,-0.25754,-0.64017,-0.61467,-0.20653,0.58421,-0.027969,-1.1248,1.0688,1.2984,-0.53813,-0.23202,-0.18103,-0.53814,-0.84424,0.40565,0.22708,0.63521,1.0689,-0.1045,0.099552,-0.20653,-0.79321,-0.35959,0.99233,-0.18098,-0.25754,-0.58913,0.20156,-0.81873,0.73725,-0.25754,0.35464,-0.2065,0.68626,-0.15552,-0.74217,0.17609,0.48214,-0.25758,-0.64018,0.023029,0.15063,0.22712,0.48218,-0.07899,-0.15554,0.17606,0.22713,0.1251,0.27803,-0.1555,-0.58912,0.3802,-0.12999,-0.18103,0.048531,-0.23205,-0.76771,-0.28305,0.12509,-0.002454,0.96683,0.78825,0.2526,-0.66567,-0.46159,0.023023,0.30363,0.50766,0.38014,-0.61463,-0.97174,0.17609,0.45667,0.023047,-0.18101,2.2167,-0.7422,-0.33407,-0.64015,-0.35958,0.048549,-0.181,-0.28305,-0.027962,0.17611,0.78829,0.099595,0.22711,0.22712,0.15057,-0.74217,-0.89526,0.58415,0.023035,0.58421,-0.7422,0.68622,-0.92075,0.63526,-0.43608,-0.2066,1.0178,0.22712,-0.33399,-0.33405,0.12505,0.074033,0.023035,0.15057,0.2271,-0.9462,0.99226,0.38009,0.40569,-0.76764,-0.027962,-0.64018,0.15057,0.45669,-0.4361,0.38016,0.12507,-0.86972,0.099564,1.579,-0.30858,-0.35957,0.023065,-0.41056,-0.23201,-0.23201,0.20161,0.60972,-0.33409,0.43114,0.074033,0.43118,-1.0738,0.48216,-0.20653,-0.10444,-0.25753,0.58419,-0.86973,0.023029,-0.13002,0.2271,0.35465,-0.18101,0.38017,-0.30855,-0.30855,0.60972,0.25261,0.023023,-0.33408,0.22711,0.15059,-0.30856,-0.53812,0.35466,-0.51262,-0.1045,-0.53814,-0.35957,0.30361,1.1454,-0.15548,0.43118,-0.35955,0.023041,-1.3289,1.0433,0.38013,-0.33409,-0.28304,0.12505,-0.027974,-0.13004,-0.41058,-0.002467,0.2526,-0.18105,-0.15551,-0.10452,0.60971,-0.13,0.45666,0.45665,0.22712,-0.33405,-0.69118,-0.20648,0.55862,-0.48715,1.2729,0.15062,-1.4819,-0.43611,-0.002472,0.023047,0.023054,0.25261,0.12507,0.15056,0.78824,0.048555,-0.002454,-1.3544,0.91581,-1.0993,-0.99727,0.099583,0.78829,0.81378,1.3749,-1.2524,0.27811,-0.30858,-0.48713,-0.15553,0.1506,-0.053451,-0.15549,0.048536,-0.64017,-0.02798,0.8138,0.8393,0.20159,0.32913,-0.56362,-0.33407,-0.20653,-0.13002,-0.0535,-0.20655,0.58421,0.12509,-0.33405,0.048543,-0.8187,0.63518,0.07402,0.2271,-0.76766,0.91586,0.94128,0.074008,-0.078984,-0.86971,-0.35956,-0.53812,-0.53812,-0.20652,-0.07899,0.71168,0.40562,0.074062,0.32915,0.023059,1.2219,-0.38509,-0.4361,-0.10451,0.50766,-0.027987,-0.69116,-0.46159,-0.23202,-0.18102,-0.51262,1.528,0.81379,-1.0228,0.023023,-0.30857,0.48219,0.15059,-0.58913,-0.58914,-0.23205,0.20158,0.17609,-0.002467,0.86478,0.43117,-0.5381,0.27812,0.48218,-0.43609,-0.23203,-0.33407,-0.078984,-0.10449,0.023041,0.048518,-0.46162,-0.51262,-0.18098,0.9668,0.20159,0.43115,0.53321,0.15058,-0.53812,-0.33407,-0.46159,-0.28306,-0.181,0.30362,0.58417,-0.4871,0.04858,0.78828,0.20155,0.32911,-0.027993,-0.25751,-0.58913,0.68622,-0.23205,-0.28306,-0.20653,0.099577,0.074087,-0.13001,-0.13002,-1.0483,0.66075,1.1964,-0.48714,0.2016,0.17607,-0.97177,-0.25756,0.023041,-0.35955,0.1251,0.81378,0.20159,0.12508,-0.23204,-0.25753,-0.15549,-0.35956,0.71171,0.58421,0.22711,-0.35955,-0.35956,-0.23203,-0.20652,-0.078984,-0.027987,-0.15553,-0.43609,0.048573,-0.07899,0.96681,0.78825,-0.48713,-0.94626,-0.25754,-0.4871,0.94126,0.53318,-1.0228,0.7883,0.32912,0.074044,-0.61463,0.43117,0.17607,0.4822,-0.66564,-0.25755,-0.078996,0.099577,0.27814,0.73727,-0.35956,-0.35955,-0.5381,0.50767,-0.079026,0.32912,0.17608,0.12507,-0.23203,-0.33407,0.38013,0.2781,-0.53814,-0.079021,0.27812,-0.33405,0.53321,0.22711,-0.48711,0.17608,-0.35957,-0.66567,-0.053458,0.30361,0.45667,0.12507,-0.28308,0.12508,-0.41058,0.68627,-0.7422,0.2271,1.0944,-0.38508,-0.079033,-0.28306,-0.20652,-0.15549,0.12506,-0.30855,0.17607,-0.20652,0.58418,0.074075,-0.43608,-0.25753,0.048555,0.32909,0.30361,-0.12999,-0.38506,0.12507,-0.053488,-0.053488,0.099583,-0.05347,-0.48713,0.099528,-0.12999,0.4567,1.1454,0.09957,-0.4616,-0.41058,0.048543,0.91583,-0.69119,-0.79324,0.53319,-0.86974,2.1147,0.48218,-0.89522,-0.078947,-0.12999,-0.15554,0.023023,-0.15553,0.78827,-0.23203,-0.48708,-0.46162,0.27811,0.43113,0.30363,0.15062,0.96683,-0.28308,-0.30859,-0.4106,0.048549,-0.46157,0.2526,-0.10451,-0.002472,-0.027962,0.22712,0.17607,0.048543,-0.58913,-0.13002,0.48218,-0.38508,0.5842,-0.33407,-0.33406,-0.25751,-0.20652,-0.053488,0.074044,0.78825,-0.23204,-0.28303,0.38017,1.1454,-1.0228,0.35466,0.2526,-0.58916,-0.81868,-0.43609,0.048555,0.20156,1.1964,-0.079008,0.023047,0.12505,-1.4054,0.55869,0.45668,0.023047,0.074062,-0.23201,-0.53811,0.17607,0.074044,-0.1555,0.45665,-0.33407,-0.38506,0.55872,-0.89522,0.53321,0.66074,-0.61465,0.71175,-0.002467,-0.3086,-0.53814,0.2271,0.40566,-0.05347,-0.25753,0.17609,-0.38508,-0.23207,0.35463,-0.5126,-0.58912,2.2677,0.15056,0.38017,-0.61462,-1.0483,-0.56365,0.3801,-0.25754,0.40564,0.63523,-0.027969,-0.33407,0.40566,-0.28305,-0.41059,0.023035,-0.15551,-0.74219,1.7576,0.25261,-0.13002,-0.38504,0.048567,-0.33409,0.07402,0.09954,-0.15553,-0.30856,-0.41059,0.58419,1.2474,-0.35961,1.0689,-0.64017,-0.81871,-0.46158,0.15058,0.53314,-0.30855,0.66076,0.023035,-0.20652,1.1454,-1.2268,0.6862,-0.15556,-0.76767,-0.5126,0.32916,-0.38505,0.099583,0.63523,0.20159,-0.027987,-0.053476,-0.053464,0.12507,-0.15551,0.83928,0.12507,-0.30855,-0.38508,0.12507,-0.66566,-0.18101,0.30361,0.40566,-0.20653,0.3036,0.023029,-0.002467,0.048543,-0.15552,-0.23199,0.30365,-0.53815,1.63,-0.48713,-0.69117,0.8138,0.22713,-0.56364,-0.66565,0.099601,0.17608,0.35462,0.15058,-0.89522,-0.7167,1.0433,1.0689,-0.46159,-0.13001,0.023047,0.8648,0.12502,-0.58918,-0.38511,0.30365,-0.18097,-0.12997,-0.23201,0.12506,-0.07899,-0.28307,0.58419,-0.43613,-0.002467,-0.81876,0.81373,1.426,-0.43607,-0.079008,-0.35957,-0.41061,-0.3851,-0.48711,0.12508,1.7576,-0.33406,-0.74218,0.30363,0.074044,-0.002467,-0.35959,-0.48713,-0.69117,0.58423,0.91581,-0.002467,0.099583,0.43118,0.20163,-0.18103,0.099546,-0.4871,-0.28305,-0.078972,-0.48713,0.32914,0.91579,-0.4361,-0.3086,-1.1503,0.43117,0.68625,-0.28306,0.099534,-0.41059,-0.38508,0.48222,1.4514,-0.20656,0.35462,-0.25756,-0.53811,-0.35957,0.023041,1.1199,-0.71668,-0.51262,-0.053519,-0.053482,-0.13001,-0.13001,0.30361,0.38016,0.5332,-0.33407,-0.33404,0.074038,-0.41061,-0.20653,-0.10447,-0.4106,0.96683,-0.28303,-0.33407,0.17609,0.20158,-0.053476,-0.10449,-0.71668,0.99232,-0.43612,-0.18106,0.40568,0.15062,0.91584,-0.58917,0.30363,-0.66566,-0.28306,-0.027969,0.27813,-0.33406,-0.35958,-0.3851,-0.10449,0.38016,0.32913,-0.002472,0.86482,-0.23204,-0.35958,0.50768,0.35465,-0.41057,-0.25752,-0.4361,0.023041,0.81377,-0.64015,0.20159,0.63521,0.60969,-0.64016,-0.74218,-0.43606,-0.20649,0.68622,-0.028018,-0.8442,-0.23203,0.35464,0.60968,0.22708,0.20163,-0.232,0.48218,0.2271,-0.078996,-0.33406,-0.28304,0.074087,-0.86975,0.6607,-0.23207,0.023035,-0.53811,-0.15549,-0.002454,0.35463,0.099521,-0.053495,0.94137,0.45667,-0.027993,-0.33404,-0.56365,-0.33407,-0.23202,-0.07899,-0.20653,0.12509,0.50768,-0.07899,-0.002479,0.30361,0.66072,-0.74217,-0.43608,0.15059,0.099559,-0.35956,0.27808,-0.13004,0.35464,0.15059,-0.46157,1.1709,-0.23204,-1.2268,-0.3341,0.53317,0.45666,0.66074,-1.2013,0.99235,-0.13002,-0.53814,-0.4616,0.50769,-0.002448,0.048543,0.17609,-0.18101,-0.3851,0.55869,-0.28303,0.048567,0.53321,0.15057,-0.33406,-0.053513,0.023041,-0.181,-0.053464,-0.0535,0.5587,-0.078977,-0.28302,0.89029,-0.30857,-0.38508,-0.28305,-0.20653,-0.15554,0.43117,-0.053482,-0.079014,0.02301,-0.20653,1.0433,-0.23208,0.86477,-0.30856,-0.25755,-0.30855,-0.61465,-0.30854,0.074069,0.58423,-0.027956,0.76276,-0.35959,0.50768,-0.38508,0.074044,0.048531,-0.69116,0.023054,-0.002485,-0.69116,-0.53812,0.099564,1.0688,0.63521,0.40565,-0.23202,-0.33405,-0.20655,-0.81871,0.55871,0.17606,0.15055,-0.053488,0.023059,-0.053458,0.099564,0.30363,0.40566,-0.43611,-0.25755,-0.027987,-0.25754,0.68626,0.20163,-0.35956,-0.69118,0.27809,-0.13002,0.45669,-0.002454,-0.25753,-0.002485,0.2526,0.048531,0.38015,-0.28305,-0.078953,-0.2065,-0.18102,-0.53815,-0.10452,0.074051,0.35464,0.2271,0.38016,-0.46155,-0.027956,0.55869,-1.2268,1.1709,0.38013,-0.35959,-0.69121,-0.23205,-0.18099,0.53317,0.17607,-0.23199,-0.10447,-0.053458,-0.18101,0.58422,0.25263,-0.18103,-0.20652,0.099552,-0.23203,-0.48711,-0.20652,1.375,-0.13002,-0.10452,-0.3341,-0.027993,-0.078984,0.023072,-0.027987,0.023023,-0.002472,-0.46157,0.023059,0.68626,-0.35957,-0.078977,0.32914,0.1761,-0.078984,-0.15553,-0.43611,0.55869,-0.13003,0.43115,0.074044,-0.25756,-0.078977,0.32913,-0.1045,-0.46157,-0.25751,0.099564,0.099534,-0.078996,0.25263,0.45665,0.48214,-0.69119,0.48219,-0.58914,0.25262,-0.053458,-0.41058,0.32912,-0.35957,0.20161,-0.20652,0.2271,0.048525,-0.15552,0.20157,-0.86975,1.3239,-0.58913,-0.027993,-0.002467,0.6097,0.17612,0.63528,-0.74218,-0.15553,-0.25756,-0.23203,0.2271,0.27812,-0.027962,-0.027998,-0.33407,-0.027969,0.099564,-0.053482,-0.027962,-0.078977,-0.078984,0.8903,0.048555,0.81377,-0.61467,-0.43608,-0.43609,-0.10455,0.15053,0.074051,0.17612,1.0178,-0.43613,0.63521,0.66075,-0.4871,-0.43609,0.099564,-0.10451,-0.56367,0.48216,0.8648,-0.30855,0.074069,-0.86972,-0.002443,-0.13,0.43117,0.50766,-0.18104,0.074044,-0.23205,-0.13002,0.12507,-0.078984,0.074062,0.12509,0.22711,-0.12999,0.38014,0.22709,-0.027987,-0.86974,0.43117,-0.23202,0.20158,0.074062,-0.30854,-0.41058,0.55867,0.94128,0.15057,-0.89523,0.22711,-0.33405,-0.18105,0.60973,-0.13001,-0.25756,0.50769,0.09957,-0.35956,0.25262,-0.74218,0.2016,0.17609,0.074038,-0.079002,-0.1045,-0.053495,0.94131,0.45667,-0.38509,-0.25754,-0.74218,0.91581,-0.20652,-0.027987,-0.25754,1.1199,-0.053513,-0.92075,-1.0228,-0.33405,-0.027944,0.32913,0.22708,0.074062,0.35464,1.0689,-0.18104,-0.20653,-0.23203,-0.33406,0.63523
0.45667,-0.43613,1.7321,0.38013,-0.53812,-0.43608,-0.15549,-0.30856,-0.002461,-0.48713,-0.25756,0.12505,-0.027974,0.048549,0.15059,0.17609,0.12507,0.12507,-0.053482,-0.002454,0.15059,0.38014,-0.18103,-0.0535,-0.10451,-0.23205,-0.15551,0.32913,0.023041,-0.23204,-0.38508,-0.053482,-0.25754,0.94133,-0.38506,0.30363,-0.13002,-0.15551,-0.10449,-0.10449,-0.053488,0.15057,0.099552,0.40565,-0.002467,-0.078984,-0.002461,-0.053482,-0.30855,-0.002485,-0.053482,0.63523,-0.41057,-0.33406,0.074051,0.12505,0.2271,0.048549,0.25262,0.023054,-0.07899,-0.13002,0.12507,-0.69119,0.60973,-0.1045,-0.15549,0.12509,-0.181,-0.25753,-0.13003,0.074038,-0.18101,0.30362,-0.053451,0.099577,-0.027962,0.099577,-0.053464,-0.1555,-0.15549,0.30363,0.27812,0.12507,-0.30855,-0.25756,0.15056,-0.30858,1.681,-0.13003,-1.1248,-0.30856,-0.15551,0.63523,-0.10449,-0.10447,0.1251,0.17609,-0.079014,-0.51262,-0.1555,0.074062,-0.30856,1.4005,0.32914,-0.33406,-0.079002,-0.20655,-0.25754,-0.02798,-0.41058,0.15059,0.27812,0.71175,-0.15553,-0.053488,-0.92076,-0.28306,0.25263,0.2016,0.048561,0.15057,0.15056,-0.002461,0.12507,0.25262,-0.15551,-0.13001,-0.079008,-0.23205,0.25262,-0.1045,-0.35956,-0.027956,0.27813,-0.41058,1.0434,-0.33406,-0.13002,-0.25754,0.023035,-0.002461,0.35466,-0.002443,-0.41057,-0.99727,1.4515,0.20157,-1.0483,1.0944,-0.4361,-0.38508,-0.053458,0.099583,-0.002461,0.17607,0.38013,-0.20653,-0.38507,-0.002454,-0.027993,0.023041,-0.1045,0.1506,-0.05347,0.074057,0.15056,0.099546,-0.13001,0.048531,0.12505,0.023023,-0.4106,-0.23204,0.15059,0.48219,0.15058,-0.23202,0.17609,-0.18101,0.074069,1.0433,-0.35956,-0.79321,-0.027969,-0.38508,0.2271,-0.1045,-0.20653,-0.23205,0.30361,0.023029,-0.053495,0.35465,0.048561,-0.15551,0.45669,0.1506,0.38016,-1.2268,0.99235,-0.078977,-0.181,-0.20651,-0.10448,0.074075,-0.30855,0.023041,-0.027987,0.074051,0.048555,0.099546,0.023047,-0.002467,0.023035,-0.002485,0.17607,-0.053476,0.15056,0.099546,-0.079008,-0.15552,-0.13,-0.10448,0.1251,-0.18102,0.2526,-0.002485,0.22708,0.45666,-0.15553,-0.86973,1.5025,0.1761,-0.33404,-0.61464,-0.25754,0.048531,0.048525,0.048543,0.30362,-0.28306,-0.15548,0.12509,-0.33406,0.38016,0.15057,0.15056,-0.07899,-0.002472,-0.23203,0.023065,-0.078977,-0.078972,-0.12998,0.099588,-0.71668,1.375,-0.58915,-0.30856,-0.28305,0.023041,0.023041,-0.18102,0.023023,0.40565,0.30361,0.099552,-0.15554,-0.15552,0.78828,0.048561,0.023041,-0.078984,-0.13002,-0.20652,-0.38508,0.17609,0.32915,-0.41059,0.099559,0.15057,-0.51263,0.81379,0.023047,-0.38506,-0.23204,-0.20653,0.099546,0.023041,0.25262,0.15058,0.15059,-0.027987,-0.20652,-0.71667,-0.35957,1.0689,0.60971,0.099552,-0.053506,-0.18102,-0.25753,-0.18102,0.023059,0.023054,-0.25755,0.20158,0.17609,-0.15552,-0.33407,-0.2065,0.15059,0.30363,-0.078984,-0.20653,0.9158,-0.48711,-0.07899,-0.20652,-0.25753,-0.18102,0.15056,0.91583,0.1761,-0.15552,-0.20654,0.023035,0.074062,-0.15551,-0.027969,0.15058,-0.30856,-0.13001,0.099559,0.76277,-1.3799,0.58421,0.099564,-0.13001,-0.027962,-0.053464,0.023047,0.30363,-0.23204,-0.053476,0.048531,0.074051,-0.053476,-0.07899,0.099564,0.09957,-0.10449,-0.13001,-0.002472,0.09957,0.12509,-0.002448,-0.48711,-0.92077,0.78827,0.45667,-0.078972,0.048549,-0.13,0.023035,-0.07899,-0.05347,-0.05347,-0.20653,0.15058,0.43115,-0.48711,0.099583,0.12507,-0.25754,-0.25756,-0.13001,0.074062,0.023041,0.20161,0.12507,0.15056,0.023041,-0.12998,-0.002461,0.023023,0.099546,0.15058,-0.002461,-0.053482,-0.002479,-0.13,0.099588,-0.027956,-0.13,-0.20655,0.099552,0.12507,-0.38508,-0.05347,0.2271,-0.053476,-0.28307,-0.053476,0.50769,-0.027956,0.35464,-0.079002,-0.18103,0.32912,0.8393,-0.38508,-0.48709,-0.43609,-0.027962,0.074038,-0.30859,-0.027969,0.074062,0.023059,0.15058,-0.078996,0.20158,0.25262,0.45667,-0.027969,-0.13001,-0.079002,-0.079002,0.048543,-0.10448,-0.33405,0.20159,-0.027969,-0.15551,0.2526,0.17607,0.074051,-0.28305,-1.0228,0.15059,0.43118,0.45669,-0.027962,-0.20652,0.20158,0.2781,-0.28305,-0.4106,0.22713,-0.33407,0.20158,0.35464,0.099583,-0.027956,-0.25754,-0.027974,0.2781,0.023035,-0.1045,0.023041,-0.28304,0.55873,-0.18101,-0.027969,0.074051,-0.38508,0.48216,-0.13003,-0.15551,-0.053482,-0.41059,-0.66565,0.73729,0.30363,0.074062,-0.20653,0.45665,0.3036,-0.3851,-0.078984,-0.13,-0.48709,0.83932,-0.28303,-0.46161,-0.079008,-0.078984,0.22707,-0.07899,-0.078996,0.15058,0.2271,0.22709,0.099564,-0.20652,0.074062,-0.053495,0.63521,-0.33408,0.27813,-0.41058,-0.002461,0.048536,0.45666,-0.13001,-0.20653,-0.46159,-0.15551,0.32912,0.94132,0.023059,-0.66567,0.12507,-0.078984,0.048561,1.0943,-0.30856,-0.35957,-0.41059,0.30363,-0.25753,-0.30856,-0.027987,0.023047,0.32913,0.074033,-0.053488,0.048561,0.099564,0.048536,-0.053476,-0.027956,0.048567,-0.053476,-0.027998,0.023023,0.048531,0.32913,-0.25754,0.35464,-0.027993,-0.35957,0.83932,-0.28305,-0.13002,-0.13002,0.09954,0.074051,0.25262,0.15057,0.15056,-0.28305,-0.13,0.023059,0.048573,0.099564,-0.58915,0.66074,0.43116,-0.15553,-0.28305,-0.18101,0.35465,-0.46161,0.73726,-0.078972,-0.13001,-0.13001,-0.07899,-0.002467,0.048536,-0.053495,0.023035,0.15057,0.099564,0.12507,0.074051,-0.35958,-0.20652,0.27812,0.17609,0.099564,-0.10451,-0.41058,-0.002467,-0.053458,0.66075,0.12507,-0.18103,0.35463,-0.56365,-0.002485,-0.74219,-0.002461,-0.33404,0.45669,0.50768,0.099564,-0.43612,0.09957,0.58422,-0.25753,-0.15551,0.074057,0.17608,-0.46162,0.53318,0.02301,0.25259,-0.13002,-0.23203,-0.15551,-0.25755,0.2016,0.048555,0.17609,0.12509,-0.053464,0.09957,0.048555,0.023047,-0.027974,-0.1045,-0.13001,0.048536,-0.1045,-0.078996,0.074069,-0.027969,0.58421,0.25263,-0.30855,-0.33409,-0.25755,-0.20653,-0.05347,0.17608,0.40564,0.40563,-0.002479,0.2016,-0.35956,-0.71667,0.43115,0.023035,-0.25754,0.30365,0.48217,-0.53814,-0.41061,0.048531,-0.13001,1.3749,-0.028011,0.023054,-0.23201,-0.33403,-0.64014,0.074087,0.32912,0.76275,-0.61461,-0.35959,0.30358,0.58413,0.12504,-0.41052,0.074087,1.0944,-1.3289,-0.18103,0.63522,-0.1555,-0.66565,0.30364,-0.71671,-0.51264,0.40561,0.81378,0.68624,-0.13001,0.96686,0.20163,-1.89,0.91583,0.20161,-0.86974,-0.20653,-0.61464,0.023041,2.6248,-1.6095,-1.3034,0.17607,-0.33407,1.4259,-0.28305,0.6352,-0.61464,1.1454,-0.38505,-0.76769,-0.66565,-0.43609,-0.25751,-0.002472,-0.30858,1.0433,0.45666,-0.79321,0.074051,2.0892,0.17607,-0.84422,0.60974,-0.46157,-0.8442,-0.97179,0.32911,-0.078977,-0.30852,-0.61463,1.9871,0.58422,0.71175,-1.4309,-0.92077,0.53318,-0.61465,-0.13,0.38014,0.12507,-0.56361,0.38018,-1.1503,2.0382,0.96681,-0.4871,-0.76772,-0.053495,-0.078984,-0.1045,0.76275,-0.23205,-0.38509,-0.23204,-0.05347,0.20154,-0.28307,-0.002461,0.099546,0.76275,-0.23204,0.73726,-0.30856,-0.35958,-0.1045,0.38014,-0.027987,0.35467,0.58425,-0.61463,-0.8187,1.3494,-0.69119,0.15059,-0.66567,-0.053476,0.074026,-0.10449,0.022998,0.55868,0.15057,-0.18103,0.17608,1.0179,0.53319,-1.6605,0.15057,0.45668,-0.66564,0.76277,0.099559,0.35464,-0.23204,-0.51263,-0.69117,-0.18101,0.12507,-0.20653,0.40565,0.78827,0.8648,-0.25755,-0.41063,-0.13002,-0.10449,-0.18101,0.43117,-0.028011,-0.002454,-0.30853,-0.5636,0.58425,0.38017,-0.7422,-0.28305,-0.002467,0.023035,-0.18103,-0.25754,-0.05347,-0.23204,0.40564,0.83928,-1.3289,0.76275,-0.027969,-0.89526,0.17609,0.55871,0.48219,0.023035,-0.53813,-1.4564,1.426,0.48218,-0.18104,-0.51262,-0.078977,-0.38507,0.22711,-0.33405,-0.053488,0.89029,-0.38508,0.86477,-0.0535,-0.43611,1.2474,-0.20652,-0.53812,-0.002454,-0.38506,-1.4564,1.426,-0.86974,1.732,-0.48716,-0.35957,-0.71667,-0.51259,0.4822,0.15059,0.023023,-0.38509,-0.053495,0.15057,1.1454,-0.30854,-0.46159,0.27812,-0.053495,-0.15552,-0.30854,0.15057,-0.25755,-0.66566,0.048561,-0.33405,-0.1045,0.38014,-0.35957,0.5077,0.5332,-0.10453,-0.61465,-0.4616,-0.027956,0.76277,0.022992,1.7576,-0.18098,-0.79321,0.048555,-0.84422,-0.69117,0.38014,1.0434,0.1761,-0.38509,-1.9666,2.2167,0.074057,0.3036,-0.002461,-0.027974,0.12508,0.25263,-0.46161,0.48217,-0.86974,0.81379,-0.027974,-0.15553,-0.35958,0.074081,-0.13,0.3036,-0.23203,0.53321,-0.86975,-0.25754,2.1657,0.25259,-1.0228,-0.61463,-1.3289,0.40566,0.20159,0.15056,0.43116,0.55869,0.2526,0.17607,-0.028005,0.78825,-0.56365,0.35464,-0.25754,-0.92074,1.7831,0.30363,-0.12999,-0.5126,-0.76771,0.023047,-0.20652,-0.23205,-0.30858,0.023029,0.50769,-0.28306,0.5077,0.40566,0.53321,-0.079002,0.099564,-0.18101,-0.89524,0.30362,0.55872,-0.15553,0.32912,-0.33408,-0.81871,0.25261,0.1506,0.099588,0.20159,0.023029,-0.76772,-0.3851,-0.64015,0.35465,-0.64015,-0.02795,0.60971,0.074051,0.40568,1.2474,-0.2065,-0.33407,-0.07899,-0.64017,0.17609,0.12507,-0.43611,-0.33407,-0.15551,1.1199,0.15059,-0.38505,-0.18099,-0.51262,-0.28306,0.2016,0.38014,-0.61465,-0.56363,0.12507,0.25263,-1.0483,0.02301,1.0943,1.2219,-0.3851,-1.2779,1.2729,-0.30855,-0.30855,-1.0738,0.4822,-1.2013,1.6301,0.60973,-1.0738,0.12508,-0.56363,-0.61463,0.12508,0.73728,0.20158,0.20157,0.09954,-0.66565,0.48218,0.30362,-0.28303,-0.76769,0.63523,-0.99725,0.63523,-0.74221,1.5025,1.3495,-0.10447,-1.3034,-1.1249,-0.053488,-1.0738,0.1506,0.20163,0.5332,0.38013,0.43115,0.60972,0.71175,-0.4106,0.38014,-0.13,-1.2013,1.0434,-0.53818,0.048543,-0.053464,-0.58914,0.73725,-0.92077,0.074038,0.81379,-0.76767,2.1912,-0.79323,-0.18103,-0.027962,-0.7677,-0.71668,0.38017,0.30361,-0.13001,0.20159,0.45666,-0.18102,0.68624,0.074038,0.78828,-0.1555,-0.51261,-0.56365,-0.13001,-0.23203,-0.002461,0.32913,0.074062,-0.25754,-0.20655,0.63517,0.074062,-0.28304,-0.28307,0.35466,-0.43609,1.6045,-0.64016,0.8648,-0.4106,-0.81873,-0.02795,0.074081,-0.25753,-0.74221,-0.64017,0.78827,-0.15553,0.023047,1.1199,1.0178,-0.15553,-0.0535,-0.38509,0.15059,-0.94622,0.60973,0.71175,0.20161,-0.89524,-0.28309,0.15058,-0.38506,0.048561,0.099552,-0.23206,-0.20649,-0.053439,-0.053525,0.38005,0.12507,0.50771,0.32913,-0.15551,0.15058,-0.84421,0.89031,-0.48711,-0.30854,-0.35956,-0.35962,0.89028,0.86481,-1.3544,-0.05347,-0.53815,0.32912,0.53319,-0.66564,2.4208,-0.43612,-0.58916,-0.99724,0.074062,0.27811,-0.53815,-0.23203,0.8903,0.17609,0.73724,0.50768,-0.7422,0.43117,-0.12998,-0.46154,0.22707,-0.64018,0.22711,-0.30856,0.89032,0.048536,-0.84422,-1.2778,0.71171,0.86477,-0.46159,1.5535,0.12506,-0.89526,0.074062,-0.35957,0.20159,0.5332,0.60971,-0.84422,-0.97179,-0.053495,0.53318,-1.2013,2.0126,-0.23205,-0.3341,-0.51262,-0.078977,-0.18101,0.45669,0.17607,0.45664,-0.28306,-0.15547,-0.38506,0.4822,1.9616,-0.7422,-0.53814,-0.66565,-0.56364,0.27811,0.048561,0.15058,-0.43609,-0.56366,0.86478,-0.4106,0.2016,-0.69117,-0.181,0.15059,0.66072,-0.053488,-1.0483,1.528,-0.25755,-0.33406,-0.41058,0.15057,0.27812,0.73728,-0.53814,-0.8187,-0.078984,-0.25757,0.94133,-0.76769,0.09957,0.40566,-0.94625,1.2219,-0.66566,-0.56366,1.8851,-0.079008,-1.4054,0.63524,-0.92075,-0.51261,0.22713,0.45666,0.12505,0.048543,0.9413,0.38014,0.023047,-0.078972,-0.92073,0.048549,-0.41061,-0.053476,0.074062,0.48217,0.83927,0.73725,-0.81869,-0.56363,-1.9156,0.074069,0.96683,0.89032,-0.46161,-0.74221,-0.3851,-0.25754,-0.002443,-0.1045,0.048525,1.1964,0.38018,-0.35957,-0.51265,0.58421,-0.07899,-0.58913,0.66075,-0.71668,-0.51263,-0.92074,0.45667,0.81375,-0.18103,-0.28305,-0.46158,0.9158,0.35461,-0.4871,-0.35959,0.048543,-0.69116,1.0178,-0.48714,-1.0228,1.7575,0.6097,0.30363,0.023041,-0.46158,-0.69115,0.023065,0.27812,-0.23203,-0.64018,0.96677,-0.69121,0.17608,0.4567,0.32915,-0.46159,-0.64015,-0.79318,-0.30856,0.22708,0.60969,0.099552,0.074062,0.78827,-0.35955,-0.18101,-0.18103,-0.078977,-0.002491,0.32916,-1.0483,1.8086,-0.66566,-0.66567,0.40565,-0.3851,-0.66565,0.99235,-0.35956,0.40563,-0.053519,-0.15553,-0.30856,1.0944,0.48219,0.20161,-0.33408,-0.99725,-0.15552,-0.18104,0.48219,-0.43612,0.43116,0.94133,-0.25754,-0.58916,0.30362,0.2526,0.30363,-0.10451,-0.002491,0.12509,-0.92072,0.40566,-0.10451,-1.1248,1.2219,0.09957,-0.23203,-0.4871,-0.43612,-0.053451,0.17607,-0.15551,-0.1555,0.074075,0.32912,0.48218,-0.33407,0.55871,-0.41058,-0.4361,0.6607,-0.053495,0.60973,0.45667,0.76277,-1.4819,-0.30855,-0.28306,-0.41058,0.22708,-0.078996,0.074062,0.60971,1.2729,-0.4616,-0.74217,0.12508,-0.89524,0.53317,0.099564,-0.25752,-0.15551,-0.4361,0.40563,0.1761,0.22711,0.2271,-0.002448,-0.48711,0.53318,-1.2524,0.074069,0.50771,0.30362,-0.18103,-0.15551,0.71172,-0.74218,-0.33407,-0.12999,0.023047,0.43117,0.12509,0.48218,-0.66567,1.1454,1.3239,-1.0483,-0.46159,-0.79321,-0.64016,-0.28306,-0.38508,0.17612,-0.13002,1.5025,0.074057,-0.002461,0.68626,-0.74218,0.2526,-0.20656,0.17608,0.27814,-0.05347,-0.23205,-0.43612,-0.13003,0.5587,-0.10449,-0.38506,-0.23199,0.023065,0.074051,0.023017,0.074044,-0.002497,-0.078996,0.40565,0.50769,0.22713,-0.51262,0.81379,-0.41058,-0.18104,0.20159,0.89032,-0.66568,-0.18102,-0.51263,-1.1503,-0.05347,-0.64012,-0.20649,1.4514,0.023023,0.048567,0.40568,0.83928,0.43115,-0.56366,0.99234,-0.33407,-0.58913,-0.23203,-0.69116,-0.38508,-0.10454,0.45666,-0.20651,-0.20651,0.048561,0.15056,-0.97176,0.023047,0.074081,0.35467,0.40565,0.074013,-0.20652,-0.43608,-0.002436,-0.33408,-0.13003,-0.38509,0.35465,0.074062,0.43118,-0.48712,1.4515,-0.33409,-0.66568,-0.64017,-0.48711,0.60975,-0.48714,-0.027969,-0.078996,1.0433,-0.18103,-0.13,-0.1555,-0.41057,1.8341,-0.56362,-0.66567,-0.51263,-0.28308,-0.10453,-0.002485,0.27811,0.25262,0.074075,0.45667,0.78829,-0.18101,-0.84422,-0.25754,-0.02798,0.40562,0.22709,-0.027974,0.66075,0.023059,-0.92073,-0.92076,-0.10447,1.8851,-0.13001,0.89023,-1.1759,-0.99721,-0.84421,0.76275,-0.1045,0.074087,0.099564,-0.13002,-0.053513,0.68624,-0.027969,0.048549,0.074069,-0.20653,0.71176,-0.13,-1.2269,0.58423,0.86481,0.2271,-0.64017,-0.64015,-0.89522,0.68626,0.48218,-0.002479,-0.35957,-0.15551,-0.4361,0.66074,0.50766,-0.15551,-0.25754,-0.027962,-0.027944,-0.027969,-0.25755,0.40563,0.2781,-0.15553,-0.38508,0.96683,1.0434,-0.41055,-0.58915,-0.97177,-0.13002,-0.56366,0.66072,1.0178,-0.35959,0.25262,-0.30853,-0.43609,0.83928,-0.078977,-0.64015,0.32912,-0.66568,0.81377,0.76275,0.074038,-1.0738,0.30362,0.63524,0.91585,-2.1961,-0.20652,-0.79323,0.66071,1.0433,0.27811,-0.56363,-0.74217,0.96683,1.579,0.15059,-0.10451,-0.46163,-0.51263,-0.97176,-0.078977,-0.20649,0.38015,-0.48713,0.81379,0.074038,0.50767,0.58419,-0.79321,-0.1045,-0.1045,-0.13001,-0.28303,-0.15549,0.38016,-0.56363,0.45667,0.2781,0.023023,1.0689,-0.64016,-0.46161,0.43117,0.48219,-1.0993,-0.99726,1.9871,-0.18101,-0.1045,-0.053513,0.25259,-0.28308,-0.25756,0.50769,0.12505,0.22707,-0.23204,-0.10447,-0.28306,-0.002497,0.60973,0.074062,0.45668,-0.18103,-0.25754,-0.94622,0.66075,0.6097,-0.13003,-1.1503,0.17609,0.68624,0.35466,-0.53814,-0.81871,-0.86974,1.2474,0.99234,-0.078996,-0.15551,-0.20654,0.09957,0.1506,-0.002467,-0.84422,-0.5126,0.53316,0.9668,0.30361,-0.69116,0.68624,-0.43609,-0.10448,-0.181,0.89031,0.023035,-0.078996,-0.25754,-0.10453,-0.23203,-0.078977,-0.05347,-0.078966,-0.25753,0.3291,0.27813,0.48214,0.73726,-1.0993,-0.46162,1.1964,-0.15549,-0.71667,-0.35957,-0.89524,0.20159,0.60972,0.9668,0.074051,-0.181,-0.20655,-0.79321,-0.181,0.40565,0.63521,0.45666,0.94133,0.074051,-1.1758,-0.69117,0.22709,-0.56364,1.1199,-0.30854,-0.74222,-0.3851,0.50771,0.81379,-0.33406,0.50768,-0.15551,0.1506,0.023047,-0.43611,-0.33407,0.048536,0.15059,-0.61467,0.68625,0.35464,0.048573,-0.027969,-0.43608,-0.07899,-0.13001,-0.053482,-0.078984,-0.38507,0.22712,0.53317,-0.002461,0.1506,-0.38506,-0.28308,0.12505,-0.1555,0.48219,0.12508,-0.58913,0.48218,-0.20654,-0.20653,1.324,-0.30854,0.023035,-0.58916,-0.97177,0.76278,-0.25754,-0.078996,-0.94625,0.35464,0.66074,-0.25755,0.5587,0.2526,0.22709,-0.078996,-0.30854,-0.38506,-0.05347,-0.18101,0.074062,0.40564,0.63522,-0.33407,0.15059,-0.20652,-0.1555,-0.33407,-0.18103,0.048543,0.40566,-0.002461,0.38015,0.32916,-0.84422,-0.76773,-0.25754,0.83928,0.45667,1.7066,-1.1248,-1.4564,-0.053488,0.71174,-0.89524,0.53319,-0.053495,-0.8442,0.8393,0.86481,0.023054,-0.7422,-0.46165,-0.25757,-0.20652,-0.20652,0.48218,-0.43609,0.048549,0.91581,0.15057,0.099564,0.12505,-0.23207,0.023035,-0.79321,0.68625,0.73727,0.023035,-0.28303,-0.33404,-0.33408,-0.84425,-0.35959,0.40567,-0.10447,0.8138,0.76272,-0.23205,0.074057,-0.13001,-0.30855,0.20161,-0.97174,0.40566,0.40565,-0.71668,-0.002479,-0.20652,0.17609,0.43119,0.4822,0.38017,-0.30856,-1.0228,-0.079002,0.83927,1.0689,-0.86972,-0.71666,-0.56361,0.023047,0.60972,0.17608,-0.079008,0.71173,0.83927,0.78828,-1.0993,-0.5126,-0.4871,-0.027969,0.45667,-0.61465,0.50768,-0.46166,-0.25756,1.1454,0.32915,-0.64013,0.60973,0.15057,0.048536,-1.0483,-0.56365,-0.33409,0.023023,0.2271,0.074087,0.2271,0.76278,-0.43606,-0.20652,0.32912,-0.53814,0.12505,-0.15553,0.63522,0.099559,0.2781,-0.7422,-0.28306,-0.053476,-0.25755,-0.078984,0.20161,0.25262,-0.58914,0.50769,0.15057,-0.027969,0.94131,-0.28307,0.78823,-0.89521,-0.25753,-0.43607,-0.43608,0.12509,0.09957,0.43118,-0.18101,-0.20652,0.32912,-0.053495,0.32913,-0.078984,-0.43609,-0.41059,1.1454,0.15059,-0.15551,-0.25754,-0.43611,-0.078996,0.074038,-0.00251,-0.43613,-0.078984,-0.92074,0.96681,0.22712,0.78826,0.023035,-0.69119,-1.1248,1.1199,-0.28304,0.27814,0.074057,0.25262,-0.51264,-0.25757,0.023023,-0.35959,0.30361,0.20158,-0.15553,-0.66568,0.5587,0.53318,0.17607,0.15057,-0.027962,0.15057,-0.61465,-0.69115,0.4822,0.22711,-0.28305,-0.79321,-0.13003,0.32911,0.50769,0.20159,-0.43608,0.17609,0.50767,-1.0483,-0.30856,0.55869,1.0178,-0.5126,-0.4616,0.2271,0.023029,0.66073,0.43115,-0.33409,-0.23203,-0.46159,-0.28305,0.50767,0.099552,-0.15553,-0.23202,-0.02795,0.2526,0.94131,-0.35959,-0.38508,-0.71669,0.68622,0.3036,0.6097,-0.38509,-0.38505,-0.58913,-0.25752,0.25262,0.048536,-0.33409,0.71173,-0.28306,0.60973,-1.1248,0.94133,0.60973,-0.46161,-0.15551,-0.46159,-1.4564,-0.10449,0.76278,0.73725,0.023029,-0.23204,-0.58914,-0.30855,0.99235,-0.18103,-0.23203,0.5587,0.15057,-0.3851,-0.15551,-0.078977,-0.43607,-0.15548,0.074069,0.30364,-0.46157,-0.28304,0.2526,0.27811,-0.3851,-0.15553,0.099552,0.38017,1.3239,-1.6605,0.48219,1.3239,-1.3288,-0.5126,-0.30855,0.074044,0.43115,0.2781,0.1761,-0.23202,0.68626,-0.92074,1.4005,0.099521,-0.51264,-0.53814,-0.61466,0.58422,0.023065,-0.43607,0.099595,-0.46161,-0.28306,0.07402,0.099552,0.32916,-0.002448,-0.12999,0.68625,0.15059,1.1964,-1.3289,-0.10448,-0.71666,-0.7167,0.20158,0.38014,0.96685,-0.99726,0.91581,-0.35957,-0.56365,0.25261,0.68627,-0.33406,0.5587,-0.18103,0.17606,-0.86971,-0.56362,-0.41058,0.96684,-0.25753,0.5332,0.023035,-0.10452,0.2526,-0.46159,0.048549,-0.079002,0.1761,0.48221,-0.71666,0.023029,-0.15556,1.1964,-1.4564,1.7066,-0.1045,-0.41057,-0.61463,0.023035,-0.002467,0.023047,-0.43609,0.17607,-0.18105,0.94133,-0.64014,-0.48711,-0.002472,0.91579,0.81376,-0.23204,-0.66567,0.5332,0.48218,-0.43611,-0.64015,-0.28302,-0.002467,-0.79322,0.83928,0.20159,0.09954,-0.99727,0.55872,-0.027938,-0.4616,1.528,0.3291,-0.79321,-0.51262,0.27812,0.53317,0.023054,0.17611,-1.2778,-0.64013,0.66073,0.023017,-0.002485,0.15059,1.477,0.048561,0.099546,-0.35956,-0.078977,-0.02798,-0.7677,0.048531,-0.53815,0.50769,0.17612,0.55871,0.76275,-0.4361,-0.35959,0.048555,-0.43608,-0.71665,-0.28305,-0.3851,0.76274,-0.002479,0.81379,0.17609,-0.002454,0.17611,-0.41058,-0.43607,-0.181,1.2219,-1.1503,-0.15551,-0.56361,-0.3851,1.2219,1.6045,-0.6146,-0.5126,-0.30856,-0.46159,0.43117,0.58419,-0.74218,-0.25754,-0.23206,0.074038,0.35464,-0.33406,-0.46161,2.1912,0.83929,-0.25754,-0.5636,-0.71668,-0.20656,-0.48712,-0.28305,-0.13001,-0.43609,0.43118,1.375,0.15058,-1.0228,0.023059,-0.64015,-0.33409,0.71175,-0.3596,-0.02798,-0.053482,0.22712,0.43119,-0.92073,1.0689,0.40565,0.048567,0.074069,0.30362,-0.35957,-1.3289,-0.30855,-0.002485,0.074057,0.099559,0.25257,0.2271,-0.053476,0.35463,0.09954,0.5332,0.15056,-0.33409,-0.51263,0.48216,-0.20655,-0.053476,-0.13,-0.25754,-0.1555,0.074069,-0.7167,0.17607,-0.20654,0.22708,0.20159,1.1964,1.6045,-0.81874,-0.81872,-0.027993,-0.56363,-0.66567,-0.13,0.023041,0.7883,-0.25753,-0.18103,-0.002472,0.45668,-1.3544,1.3494,0.38013,-0.028011,-0.25755,-0.99727,0.22708,0.15059,-0.13005,0.023035,-0.30855,0.40565,-0.079008,-0.15553,0.20156,0.40566,-0.20654,-0.25754,-0.38508,0.25259,-0.20653,-0.3851,0.6352,0.15057,0.60971,-0.58914,-0.76769,-0.86972,0.58417,0.15056,-0.84424,1.0434,1.3239,-0.23205,-0.51261,-0.28303,0.20159,-0.69118,-0.20651,0.53322,-0.43609,0.12509,1.2474,-0.28306,-0.2065,-0.002467,-0.002461,-0.10447,-0.30855,-0.28303,-0.33405,0.30363,0.15056,0.20158,-0.20653,0.35465,0.074062,-0.46161,1.1964,-0.43611,-0.027962,-1.5329,1.528,-1.1758,-0.89526,-0.69117,0.63524,0.53321,-0.20653,0.66069,0.30362,0.074081,0.12509,0.048555,-0.1555,-0.002461,-0.20653,0.76277,-0.25756,-0.53815,-0.48711,-0.41058,1.1964,0.048543,-0.46161,0.45667,-1.4564,0.99232,0.53319,-0.84422,-0.46161,0.32915,0.58421,-0.002467,0.76276,0.50767,-1.3289,0.32913,-1.0483,0.40564,-0.10452,-0.15552,0.27809,0.20157,-0.15553,0.17609,0.023072,-0.53811,0.023065,0.7883,0.048543,0.1761,-0.20652,-0.33406,-0.28305,-0.079002,0.38013,0.099559,-0.38508,-0.078996,-0.078996,0.58422,0.53321,-0.23201,0.25262,-0.81871,-0.7677,1.1964,0.60972,-0.35957,-0.64017,0.48216,0.35462,0.5332,-0.51262,0.20158,-0.20652,-0.12998,-0.51262,-0.46159,0.15059,0.45665,-0.13001,0.15058,1.1964,-0.027987,-0.38509,-0.30859,0.40565,-0.002467,-0.56362,0.83923,0.12504,-0.69119,-0.94628,0.2526,0.15059,0.55871,-0.43609,0.20161,0.78828,-0.66565,0.71176,0.91584,-0.66565,-0.8442,-0.5126,-0.28304,-0.28302,1.3749,0.2271,0.86482,-1.2013,-1.3544,-0.10449,0.20159,1.1964,0.074081,0.5332,-0.41059,-0.33405,-0.41059,-0.58915,-0.002467,0.8648,1.0433,-0.053482,-0.33406,-1.0738,0.68622,0.1761,-0.002467,-0.15551,-0.3596,-0.10452,-0.43609,0.27811,-0.30857,0.43114,0.78826,-0.58916,-0.7422,-0.002497
0.55868,0.048549,0.09957,0.048567,0.074081,-0.078972,-0.027969,-0.053488,0.099534,0.02301,0.12507,0.099564,-0.33405,-0.20652,0.53318,-0.079002,0.074069,-0.13001,-0.48713,-0.002479,-0.13001,0.023047,1.1454,-0.07899,-0.25754,-0.20654,0.55871,-0.1045,-0.15549,-0.20653,-0.20655,-0.15551,0.60972,0.12507,-0.66565,0.023054,-0.13002,-0.002479,0.40565,0.023054,-0.15551,-0.078996,0.35464,0.30361,-0.002461,-0.51262,0.38017,-0.4106,-0.10452,-0.1045,0.48218,0.15059,-0.35957,-0.027993,0.074044,-0.181,0.074062,-0.002454,0.099564,0.023029,0.09954,-0.002472,-0.15553,0.32914,0.25262,-0.07899,-0.25753,-0.18103,0.074051,0.074038,0.023035,-0.002467,-0.181,0.12508,0.17609,0.15059,0.58419,-0.99728,-0.71668,-0.05347,-0.48711,1.0944,0.023023,0.35463,-0.64015,0.35465,-0.38506,1.0944,-0.10448,-0.79321,-0.15553,0.2271,0.074081,-0.56363,0.15059,0.48218,-0.078996,0.074051,0.12509,-0.7422,-0.51263,0.83931,0.27814,-0.002461,-0.3851,-0.20652,0.15059,0.12507,0.048549,0.17607,-0.02798,-0.078972,0.17611,0.023041,-0.33408,-0.078977,-0.25753,0.22712,-0.38508,0.66073,-0.079008,0.099564,-0.25753,-0.20653,-0.20652,0.15059,0.32914,-0.13001,0.2781,0.09957,-0.20652,-0.64016,-0.84422,0.30364,-0.23201,0.50769,1.681,0.32913,-0.48711,-0.53812,-0.58915,0.25259,-0.23203,0.27812,0.35465,-0.30854,-0.002448,0.074051,-0.38508,0.96683,-0.35957,-0.28307,-0.38508,-0.18102,-0.078959,0.17611,0.22712,0.43117,-0.15551,-0.15552,0.048525,-0.18101,-0.25754,-0.25754,0.20162,0.20161,0.048549,-0.002467,0.099552,-0.23205,0.074062,0.32914,0.048549,0.25259,-0.64015,-0.5126,0.048543,0.2526,-0.15552,0.78828,0.60972,-0.20653,0.45667,0.074038,-0.92074,0.17611,-0.56363,-0.079008,-0.20653,-0.18101,0.27812,0.60972,-0.053495,-0.28306,-0.02798,0.45666,0.45666,0.48216,-0.002467,-0.13002,-0.25756,-0.25756,-0.30856,-0.10452,0.40564,-0.053476,0.023047,0.023035,0.074057,0.099559,0.074062,0.048561,-0.10449,-0.079002,0.30361,-0.053476,-0.181,-0.38508,-0.15552,0.22709,0.35462,1.0689,-0.7677,-0.20651,-0.51259,0.023059,-0.33407,-0.15551,0.96683,0.20159,-0.64017,0.17607,0.023023,0.17607,-0.20653,0.45667,0.2526,-0.3851,-0.28306,-0.61467,0.32911,0.15057,0.099546,-0.15553,0.86479,0.38014,-0.58915,-0.53815,-0.23205,-0.18105,0.074044,-0.079008,0.40564,0.20158,0.099559,0.43117,0.25262,-0.15551,-0.23203,-0.23203,-0.41058,0.074069,0.20159,-0.053488,-0.20653,0.12506,0.27811,-0.15552,-0.20653,-0.13,0.50768,0.35464,-0.23203,0.58422,-0.4871,0.4567,-0.28303,-0.25753,-0.41057,0.023047,-0.25753,0.76278,-0.05347,-0.23204,0.12508,0.023041,0.17609,-0.33407,-0.20653,0.074044,0.099559,0.099552,0.25261,0.12506,0.074044,0.22709,-0.23205,-0.3851,0.2526,-0.41059,0.73725,-0.20653,-0.12999,-0.078977,-0.053476,-0.23203,0.023029,0.5332,-0.1045,-0.027974,0.048561,-0.05347,-0.30854,-0.25753,-0.20652,0.76277,0.20158,0.023047,-0.10449,-0.25753,0.048543,-0.28306,-0.64017,0.074057,0.4822,0.12509,-0.05347,0.63522,-0.35959,0.12504,0.32913,0.12509,-0.69116,-0.66566,-0.53813,1.3239,0.58421,-0.1045,-0.23203,-0.25753,-0.64016,0.17607,0.12507,0.58422,0.12509,-0.20654,-0.35959,-0.15553,-0.35956,-0.078984,0.27812,0.40565,0.58421,-0.1045,-0.027956,-0.53812,-0.027987,-0.053495,0.20161,0.60973,-0.4106,-0.46162,-0.002467,0.099583,0.023054,0.78827,-0.13,-0.46161,-0.53814,0.22708,0.12507,0.023035,0.25262,-1.3034,0.89031,0.27812,0.074057,-0.002472,-0.002479,-0.02798,-0.33405,-0.12999,0.15059,-0.002448,-0.027956,0.25263,-0.12999,-0.053482,0.074057,-0.10447,0.09957,-0.28303,-0.18103,-0.15552,0.38016,0.50769,-0.1555,-0.33407,-0.28305,0.048531,0.074033,0.099546,0.048536,0.40565,0.15056,0.48216,0.17607,-0.7422,-0.23205,0.12507,0.17609,0.27811,-0.28304,0.12509,-0.002461,-0.027974,-0.13002,-0.0535,0.48216,-0.053495,-0.079014,-0.51263,0.20158,0.71175,-0.30855,0.63525,-0.53812,-0.15551,-0.002467,-0.079014,-0.027998,0.17607,0.2526,-0.002491,-0.13,-0.027962,0.35464,-0.05347,0.1506,-0.25753,-0.92075,0.2271,-0.027969,0.20159,0.09957,0.023047,0.12506,-0.18103,-0.15551,0.5587,0.074051,-0.20653,-0.181,-0.33405,-0.43609,-0.078984,0.023041,0.17609,0.43117,0.38013,0.048525,0.074038,-0.15551,-0.053495,-0.4361,0.30363,0.2016,0.20159,-0.35957,-0.7932,0.73727,0.35465,-0.76767,-0.46158,0.17609,-0.1045,0.12505,0.66071,-0.13002,-0.23205,-0.18102,-0.002461,0.15057,0.40566,0.20161,0.023054,0.074057,0.048525,0.32913,-0.25754,-0.5126,-0.38508,-0.25754,0.099546,-0.002467,-0.15549,0.38016,0.048543,0.023035,-0.027987,-0.078972,-0.02798,-0.02798,0.25261,-0.38506,1.0178,-0.56366,0.17607,-0.20652,-0.18101,-0.078996,-0.13001,-0.20654,0.30363,-0.15549,0.43117,0.55869,-0.25755,-0.053488,0.074069,-0.23204,0.2781,-0.66567,-0.43609,-0.1045,0.17608,0.40568,-0.027962,0.43118,0.43117,-0.15552,-0.13001,-0.13002,-0.10452,-0.15552,-0.15551,-0.38506,0.66075,-0.23203,0.15059,-0.078984,-0.30856,-0.13,-0.053495,0.074062,0.074062,-0.35956,1.0178,-0.027993,-0.15552,-0.20652,-0.25754,0.27811,0.023059,-0.4871,-0.002479,-0.13,0.48215,0.2271,0.12507,-0.23202,-0.05347,-0.23202,-0.35956,-0.35956,-0.027962,0.12507,0.22708,0.60972,0.074051,-0.002454,-0.23202,-0.027969,-0.28307,-0.002479,-0.23204,0.63524,-0.30855,-0.18103,-0.15553,-0.18102,0.099577,0.074057,-0.18101,0.15057,0.5332,-0.4871,0.63522,-0.1045,-0.30858,-0.30856,-0.002467,-0.078972,0.20161,-0.10449,-0.078984,0.023023,-0.027993,-0.25754,-0.15552,0.2271,0.27812,0.30363,0.30364,0.074075,-0.33406,-0.28303,0.12508,0.20159,0.023029,-0.33409,0.20157,-0.15549,-0.12999,-0.2065,0.25263,0.32913,-0.56366,-0.28307,0.12505,0.32913,0.15059,0.12509,0.099559,-0.18103,0.22711,0.60973,-1.0738,0.91581,-0.25756,-0.18104,-0.35958,-0.28306,-0.41057,0.20161,0.27813,0.25261,-0.002485,0.048543,0.43116,-0.078996,-0.10449,0.048561,-0.12999,-0.20652,-0.078984,0.048536,-0.10452,0.12507,0.2271,0.17609,-0.20652,0.048555,-0.38509,-0.002472,0.17609,-0.28303,0.58424,-0.25754,-0.10452,0.45666,-0.4106,-0.28307,0.17606,0.15057,0.40566,-0.2065,-0.2065,-0.30854,-0.46161,0.30361,0.81377,-0.10448,-0.13,0.27812,-0.002461,-0.1045,-0.5381,-0.10447,0.40564,0.73721,-0.35958,-0.81871,-0.33407,0.22712,0.45671,-0.33408,-0.20652,-0.20653,0.83928,-0.43609,0.68622,0.32912,-1.1248,-0.28305,0.45668,0.074069,-0.15551,-0.71666,-0.4361,2.8289,-1.1503,-0.41057,-0.00257,1.477,-1.3543,-0.86971,-0.43609,0.3291,-0.38508,2.7013,-1.0738,-1.0228,0.68625,0.074087,0.55875,-0.33408,0.58421,-0.25753,-0.64017,-0.23207,-1.2268,0.63523,0.099559,0.12505,1.477,-0.89519,-0.66563,0.50768,0.96677,-1.9666,-1.0737,-1.1249,0.40563,0.81379,0.15059,-0.25756,1.375,1.2219,-0.79316,-0.7422,-1.0993,0.78828,0.20158,-1.1248,0.1761,-0.79319,-0.13001,0.89029,0.20158,-0.99731,1.1709,2.2167,-0.10452,2.0382,-0.41058,-1.788,-0.56363,-0.33405,0.074087,-1.9666,1.9106,-0.23204,-3.7776,4.0533,-0.30857,1.0688,0.32913,-0.002472,-0.99729,0.86478,-0.66566,0.074062,-0.43608,-0.28305,1.1199,-1.2268,0.15059,0.25263,0.1251,-0.30859,-0.58916,-0.10451,0.55872,-0.53815,0.73725,-0.38509,-0.25756,0.15059,-0.002479,1.63,0.78825,-1.4309,-0.51258,-0.58922,0.63523,-0.30852,0.17613,-0.7932,-0.76771,-1.3799,0.15056,2.3952,-0.18103,-0.078977,1.1709,1.1709,-1.3799,-0.12999,1.477,-1.1248,-0.38509,-0.94627,0.074069,0.27814,-0.99723,1.4005,-0.13002,-0.25753,-0.35959,1.0178,-0.66565,0.38015,-0.43611,-0.38508,-0.79322,1.8596,0.38015,-0.97177,-0.51263,0.58419,-0.81873,-0.25754,1.3749,-1.686,2.6759,-1.4309,0.12509,0.20158,-1.2524,0.48217,1.579,0.89026,0.4312,-1.6349,-2.1961,0.63524,-0.002472,2.0126,-0.3851,-0.079002,0.96683,-0.10447,-0.56362,-1.8645,-0.97175,0.96681,-0.51262,1.579,-0.53815,-0.35953,0.25266,0.99234,-0.51268,-0.181,0.32915,0.45669,-0.43607,0.099583,-0.027969,0.73725,-0.12997,-0.41057,-0.97175,-0.56361,1.1964,-0.002461,0.38018,-1.2778,0.099528,-1.2013,1.5535,-0.13001,-1.0993,-0.13002,0.55869,-0.94625,-1.1759,2.7779,-1.3289,2.8034,-0.97179,0.50766,0.048536,-0.56365,-0.3851,-1.0993,-0.23206,1.7065,0.43116,-0.002472,-1.0993,-0.43609,0.25263,-0.76769,0.35463,0.58419,-0.027993,-0.079008,0.074057,1.8341,-1.2779,-0.23204,-0.61465,0.12507,0.20162,-0.61463,-0.13,0.023029,0.27812,0.12505,0.074044,0.35464,-0.58913,-0.58913,0.7883,0.4567,-1.1248,-0.64015,0.12505,0.71171,0.20159,1.6045,-0.20652,-0.43606,-1.2779,-0.6402,1.7576,-0.92072,0.17608,0.50771,0.048592,0.68622,-1.9411,-0.181,-0.002467,-0.15553,1.2984,-0.86972,1.2984,-0.79319,-0.97175,-0.15552,1.2474,-0.1045,-0.74217,-0.053476,0.66074,0.32912,-1.1248,-0.74217,0.15056,0.9668,0.94133,0.83931,0.023072,-0.53814,-0.30858,0.20159,0.53322,-1.5074,-0.84422,1.426,0.48208,-0.51265,-0.078959,0.48222,-0.43606,-1.2523,-0.94623,0.81373,1.7575,1.0178,-0.33407,-0.43609,-0.078966,0.2526,-2.2472,-1.7115,4.2318,0.43118,-0.94629,-1.5585,0.60973,-0.38507,-0.74218,-0.7422,0.12507,-0.9207,1.7575,2.4207,-0.18102,0.27811,-0.48713,-0.69116,-0.002443,0.35466,-1.1503,2.5228,-1.0738,-1.0228,0.99234,-0.13,-0.58914,0.30361,2.3953,-0.23202,-1.3544,-0.69118,-0.7167,0.2526,0.60971,0.60973,0.048543,0.12508,-0.12998,0.099564,-1.2014,1.6556,-2.1196,0.83928,-0.84426,1.4004,1.5535,-1.2268,-0.58912,-0.8187,0.20156,0.83929,-0.7422,0.023035,1.0434,-0.86972,-0.25754,-0.64014,-0.58915,1.2729,-0.002461,-0.41057,-0.64016,1.528,1.5535,0.023047,-1.0738,-0.4871,0.40568,0.4822,-1.1249,0.27806,0.074075,0.81379,0.35465,-0.76768,-1.3799,-0.027962,2.3187,-1.1503,-1.0228,-0.86974,-0.48713,0.94129,1.1709,1.528,0.25262,-0.28306,-0.58913,-0.078996,-0.58913,0.91584,-0.94628,0.45667,-0.20655,-0.58916,1.0689,-0.46161,0.38014,-0.38509,0.35465,0.25262,1.426,-2.5532,0.30358,1.4259,-0.97176,-0.48711,0.45668,-0.027956,0.099583,-0.51261,0.32911,0.43117,0.023054,-0.66565,-0.33406,1.1199,0.15056,-0.89524,1.3494,-1.1758,1.9616,-1.0483,0.38014,0.27809,-0.64018,0.8393,-0.28305,-0.33407,0.12507,0.27812,-0.33408,0.30363,-0.13001,-0.18101,-0.71668,1.1199,0.99234,0.17605,-0.86976,-0.3341,-0.20656,0.68625,1.528,-0.48708,-0.18101,-1.6094,-0.35954,0.86483,0.71175,-2.2726,0.50771,1.2729,2.1402,-1.1503,0.45668,-0.20656,-0.94627,-0.027987,-1.5585,2.2422,-0.51264,0.60973,-0.3851,-0.027969,-0.1555,0.2271,0.71176,-0.61464,0.55871,0.32914,0.83929,0.38012,-0.53818,0.45666,-0.4871,-0.81868,-0.69122,0.43111,1.5535,-1.737,0.55873,0.76275,-0.30855,0.91584,0.45666,0.78825,-3.5225,0.55871,0.96682,2.1912,-1.5839,-0.76773,-1.4054,1.9106,0.81379,1.2219,-1.3799,-0.28305,-0.10447,-0.027944,-1.2268,0.38017,1.0688,-0.079014,0.30361,0.20157,-0.027962,-1.2268,-0.89524,1.1709,0.17611,0.48219,-0.079014,0.63521,0.074075,-0.15551,-1.4819,1.5025,1.2984,-0.46161,-0.61467,-0.43612,-0.13,-1.0228,0.023072,1.1709,-0.027987,-0.53812,-0.46161,0.55867,-0.53816,0.17607,0.53319,-0.20654,0.27811,1.7066,-1.3543,0.45668,0.45667,-2.7318,0.68624,0.32913,0.71173,-0.38511,0.074062,0.32914,-0.05347,-1.1503,0.43113,-1.89,0.20162,0.5587,0.9413,-0.15553,0.71175,-0.23201,0.27813,1.324,-1.3033,0.048555,0.48214,-0.43611,0.25257,-0.74217,0.4822,-1.0993,0.71176,-0.66567,-0.23204,0.96683,0.27814,0.83928,-2.6553,-0.64017,0.96684,-0.69117,1.9106,-0.99726,0.76278,0.074051,2.2422,-1.2524,-1.2269,-0.078972,0.50766,-0.43611,-0.4871,0.40565,-0.30857,0.73726,0.48219,0.63522,0.27809,-0.51262,0.15059,-0.25754,-0.74219,0.25263,1.426,0.40566,0.074033,-0.6147,-0.81873,0.1761,-0.10447,-0.43607,0.17609,0.35462,-1.839,0.40569,0.53318,0.25254,-0.51267,-0.10447,0.2016,-0.18101,0.30363,0.32914,-0.20653,0.96684,-0.4871,-0.79321,0.50769,-1.3799,0.81379,1.2729,-1.3544,-1.686,1.0433,-0.41061,1.1199,-0.35959,0.48221,0.8138,-1.1758,0.43117,-0.3851,0.099559,-0.43609,0.63522,0.63526,-0.30856,0.099583,0.48216,-0.20656,-1.5585,2.4973,-0.92072,0.12508,-0.84424,-0.33407,-0.18103,0.12509,0.1506,0.17609,0.023047,-0.20652,0.40565,0.2526,-0.38509,0.99232,0.68624,-0.69116,0.15062,-2.1451,1.1964,-0.56362,0.71174,0.074051,-0.81873,-1.3544,1.1454,-0.38508,-0.23203,-0.18099,1.1709,0.30363,-0.027993,0.38016,-0.10446,-0.58916,0.32912,-0.07899,0.09954,-0.13,-0.86972,0.38016,-0.027998,-0.13001,0.58422,-0.71668,-0.99727,-0.38506,1.1454,1.3749,-1.4309,0.27814,0.099559,0.48216,-1.2523,1.375,-1.1248,0.6352,-0.1045,0.53321,0.38014,-0.30856,-0.61461,-0.002485,1.0433,-0.41059,0.12508,0.43115,-0.74219,-0.078972,-0.99726,1.528,0.1761,-0.99727,0.40564,-0.18101,-0.181,0.86478,-0.51263,-0.64015,-0.46159,0.45668,1.1964,-0.23204,0.35465,-0.23202,-1.1503,-0.20654,0.89032,-1.4309,0.38014,0.66072,-0.10449,-1.1248,-0.48713,1.0178,-0.18102,0.71175,1.2474,-0.71669,-1.737,0.5332,-0.002423,0.89029,0.099552,-1.2268,0.5587,-0.28303,0.17609,-0.23203,-0.181,-0.13003,-0.18104,0.81381,-0.232,0.048536,-0.74223,0.35464,0.1761,-0.61465,-0.89524,-0.12998,0.58422,-0.35958,0.15057,1.0179,-0.13003,0.40564,-0.1045,-1.4309,0.89033,-0.71668,0.96682,-0.81871,-0.10449,0.48218,-0.30858,0.76277,-0.74218,-0.71668,-0.28306,0.86481,-0.18103,1.477,-0.027974,-0.38508,0.27811,0.12505,-0.58915,-0.56364,-0.23201,-0.99727,-0.43611,1.0689,-0.20652,1.2474,1.579,-0.4871,-0.002491,-1.7625,-0.89522,1.3495,-0.10448,-0.10452,0.48216,0.2271,-0.30854,-0.33406,-0.1045,0.55871,-0.002461,0.5587,0.15057,-0.28305,-0.28306,-0.078977,0.53318,-0.81875,-0.33407,-0.51259,-0.71666,0.04858,0.73726,1.8341,-0.027974,-1.0483,-0.23202,-0.71668,0.66072,-1.7115,-0.002461,0.50769,0.30361,0.2271,0.40564,0.074069,0.074051,0.25259,-0.3851,0.074069,0.20164,-0.84419,0.09957,0.83923,-0.13003,-0.25753,-0.23202,1.4515,-0.71668,-1.5584,0.63524,0.55873,-0.81872,-0.79321,-0.79321,1.0943,-0.1045,-0.002467,0.43117,0.53322,0.43118,-0.61465,-0.76772,2.0636,-0.48713,0.12505,0.1506,-0.25753,-0.20652,-0.61465,0.25262,-0.4106,-0.1045,0.074069,-1.0738,0.35465,1.528,0.5332,-2.2981,1.6045,0.17606,-0.81873,1.0178,-1.839,-0.71666,-0.38506,0.32912,0.15057,-0.35956,0.68626,1.0944,-0.38506,-0.51262,0.4567,-0.97176,0.099552,0.86478,1.4515,-0.86972,-0.71668,0.86478,0.20157,0.30365,-0.28303,-1.0483,0.83928,-0.027969,-0.71669,-1.5074,1.6045,-0.53812,1.2729,-0.56363,0.25262,0.12504,1.1709,0.20158,-1.5584,-0.48711,0.2526,0.45672,-0.99726,1.8596,-1.2523,0.30361,-0.51265,0.30361,0.38014,-0.23201,-0.07899,-0.027969,-0.25756,-0.43611,0.22708,-0.13001,-0.28305,-0.69116,-0.58914,-0.002461,0.83927,0.30361,1.7066,-0.8187,-0.15551,-0.4106,0.58417,-0.35959,-0.58912,-0.053495,0.50768,-1.1248,1.375,-0.25753,-0.13003,0.25259,-0.25755,-0.002448,0.43117,-1.1758,-0.002485,0.45669,-0.2065,0.38014,0.55867,-0.58911,0.40567,-0.30856,-0.15553,1.681,1.0688,-0.18101,-0.30855,-1.0228,-0.94625,-1.3544,0.63521,1.4259,-1.2779,1.5535,0.023054,-1.0993,0.60973,0.91579,0.43112,0.27811,-0.30854,-0.053482,0.45667,-0.66567,-0.51263,-0.58916,-0.18103,0.25261,1.7831,-0.71668,-0.4871,-0.10448,-0.20654,-0.51264,-0.35958,0.73725,0.12504,-0.027969,0.96683,0.074081,-1.0738,0.5587,0.25259,-0.35959,0.15056,-0.38508,0.074057,0.43118,0.83931,-0.20653,-0.33407,-0.20654,-0.69117,1.1454,-0.43609,-0.002448,-0.4361,-0.84424,0.94133,0.91583,-2.1961,-0.18103,1.1709,0.30364,0.074069,0.2526,-0.23205,-0.07899,0.30363,-0.33406,0.53323,1.2729,-0.58916,-0.92073,-1.3799,0.25262,0.25263,0.81379,1.0434,0.20161,-0.69118,-0.33407,-0.92075,0.45668,1.2474,-0.38509,-1.2268,1.1199,-0.61466,0.074051,0.12507,-0.61467,1.0179,-1.4564,0.43119,1.681,0.20159,-0.38509,0.20158,-0.84422,0.60973,0.45669,0.048585,-0.79322,-2.1961,0.71176,0.68625,1.3494,-0.28306,-0.35957,-0.41058,-0.027962,1.0178,-0.38508,0.63524,-0.56365,-0.46162,0.71175,0.43116,-0.56364,-0.35957,-0.38506,0.099546,-0.76771,-0.74218,1.1454,-0.64017,0.71175,0.099552,0.38017,0.60972,-0.56364,2.2677,-2.5787,-0.053495,-0.51263,-0.41055,1.1453,-2.4257,3.6707,-0.66568,-1.5329,-0.89521,-0.89522,1.528,-0.71667,1.0688,-1.1503,1.3495,0.5077,-0.58917,-1.584,0.40565,-1.9155,0.32912,0.99233,1.7831,-0.38506,-0.76769,-0.79322,-0.3086,0.9158,-0.1045,0.48221,1.6555,-0.86974,-0.41061,-0.74218,-1.0738,0.55872,-0.51264,-0.4616,0.30364,-0.35959,1.0689,-0.7422,-0.89522,2.3953,0.17607,-0.078996,-0.99726,-1.2268,0.2271,0.40565,-0.74217,-0.002448,-0.30853,2.7014,0.66072,-0.9463,-1.0228,0.099559,-1.788,1.4515,0.38013,-1.4564,0.40569,-0.28303,-1.6095,1.9871,-0.027993,-0.64014,-0.61463,1.2219,-0.18101,0.58417,0.83928,0.48218,-0.10449,-0.81869,0.12507,-0.92075,0.68622,-0.1045,-0.18103,-0.38508,1.0434,0.60974,-0.71668,-0.002485,-0.76772,-0.078972,0.15058,-1.1758,0.63521,-0.33409,-0.12999,0.71176,1.477,-0.053495,1.6811,-1.8645,-0.89523,0.12508,0.023023,-0.58917,-0.43608,1.2984,-0.33406,0.17607,0.5587,-1.0738,-0.51262,1.1964,-0.20653,-0.97179,0.8393,-0.28305,0.71174,-0.3596,-0.81874,0.35464,0.99233,0.2016,-0.30856,0.7883,-0.92075,-1.2013,-1.2523,0.73723,1.732,1.7575,-0.99727,0.48218,-0.97177,0.99235,-0.94624,-0.86972,0.40565,0.35467,-0.92074,-0.69117,-0.1045,-0.07899,0.45667,-0.02798,0.5332,0.38015,0.30361,1.9106,-0.25756,-0.74219,-0.41058,-0.053482,-0.92073,0.4822,-0.027962,0.50771,-0.33404,-0.53813,0.48214,-1.3544,0.023035,-0.25753,0.48216,0.40563,-0.71671,1.8341,1.528,-0.69117,-0.33407,-1.2013,-0.28305,1.3239,-0.79322,0.023035,1.2729,1.63,-0.18101,-1.8135,-0.8187,-0.58913,-0.28306,1.8596,-0.81873,0.45668,0.023047,-0.181,-0.84422,-0.28305,1.426,0.53316,-0.002479,-0.18105,0.63523,-0.38504,0.71176,-1.0738,-1.3799,1.4259,1.0178,-0.92073,-0.53813,-0.53814,0.76278,-0.30856,0.32912,0.68622,0.12507,-0.23202,-0.61465,-0.027969,0.48218,-0.64018,0.023047,2.0127,2.0637,-0.76772,0.35461,-2.0431,-1.5074,0.32914,-1.0738,0.50768,-0.18105,0.8393,1.477,-0.12999,0.38016,-0.61467,0.43116,-0.38508,-0.86974,0.048536,0.25257,0.12508,-0.33404,0.20161,1.1454,-0.35959,1.477,-0.81874,-0.51265,-0.69116,-0.76768,-0.027944,0.2271,1.3749,-0.053513,-0.13002,-0.4361,-0.002454,0.38017,-0.86973,0.68622,-0.28303,-0.38506,0.048555,-0.23205,0.50769,-0.71669,1.3495,-0.97176,-0.13004,-0.48713,1.63,-1.2778,-0.13001,0.91584,-0.7422,3.288,-0.92075,-1.2014,-1.1503,0.38016,-0.92074,-0.69115,0.5332,0.074075,0.023041,-0.07899,1.1964,0.09954,0.48218,-1.3289,1.528,-0.078966,-1.6094,0.89032,0.2271,-0.92076,-0.71671,0.20159,-0.28304,0.22715,-0.053476,0.20159,-0.078996,-0.13002,-0.64014,-0.51258,0.43113,0.50766,1.0433,0.35464,-0.38509,-1.4054,-0.38507,2.9819,-1.8135,0.023041,0.22708,-0.76772,0.27809,0.38014,0.22711,-0.8187,0.1506,-0.64015,-0.48713,0.45666,0.71173,0.074069,-0.86972,0.50769,-0.079002,0.43118,0.099583,0.35464,-0.1045,-0.13002,-0.97179,-1.2013,0.17609,0.96688,0.074044,-0.41059,-0.18104,0.023023,0.15054,0.22708,0.30363,0.30363,-0.053495,-0.33407,-0.41058,1.8086,-0.30855,-0.20651,-0.35956,-0.53813,0.35463,0.048549,-0.69118,-1.2779,2.0637,-0.35957,0.63521,-0.002461,-0.25754,0.78829,-0.53815,-1.0483,-0.84422,0.099577,1.6556,-0.94624,0.45667,0.12505,-0.10452,0.048518,-0.38509,-0.28306,0.023054,0.22713,0.38017,0.73727,-0.15553,0.38014,-1.9666,0.30359,0.099564,1.0434,-0.38506,-1.2268,-0.76768,1.477,-0.10452,0.35462,0.91581,-0.66567,0.60973,-0.4361,-0.48711,0.12507,-0.61463,0.15059,-0.10446,-0.15552,0.32908,0.048536,1.324,-1.0483,0.40566,-0.10449,-1.0483,0.63521,0.023072,-0.43608,-0.15551,-0.027993,-0.79321,1.9361,0.55872,-0.7422,-0.99727,-0.35958,0.12506,-0.18099,-0.053488,0.30362,1.4004,-0.61467,-0.74218,1.6555,-1.3289,-0.5126,-1.2523,0.63521,1.2219,-0.99726,0.48217,0.76278,-0.33407,-0.53812,-1.1503,-0.61465,0.78829,3.186,0.53318,-0.61466,-0.97176,-1.3544,0.53321,-0.66565,0.45669,0.27809,-0.53815,0.074051,0.32915,0.71176,-0.56363,0.43116,0.50767,0.074051,-0.053464,-0.84419,0.023041,-0.89523,0.53318,-0.46163,-0.33407,0.048549,1.4515,0.1761,0.30363,-0.43611,-0.71669,0.86481,-0.4106,-0.15553,-0.35957,-0.027993,-0.48708,-0.56362,-0.05347,0.3291,-0.002472,1.4005,2.0381,-0.18102,-1.1503,-0.51262,0.12506,-0.18103,0.7628,0.66074,-1.5585,-0.35957,0.27812,-0.99729,1.324,0.78827,-1.0483,-0.33407,-0.43609,0.2781,0.17609,-0.33409,-1.1503,1.2219,1.3239,-0.30857,-0.23205,0.43117,-0.86973,0.89032,-0.13,-0.18103,-0.25755,-0.51264,1.5025,0.12508,-0.38509,-1.4309,-0.027962,-0.10449,-0.3596,0.32914,1.5025,0.023054,-0.7167,-0.53815,1.3494,-0.7422,0.43119,-0.53812,-1.0993,1.9616,-0.43613,0.15058,0.048567,0.60973,-0.64015,0.12507,-0.30858,0.048555,-0.002461,-0.4106,-0.25753,0.048555,0.91582,-0.61463,0.20161,-0.28303,0.099552,0.20159,-0.027969,-0.38508,-0.002472,1.5025,-0.38509,-0.56363,0.09957,0.32915,-1.1758,0.22708,-0.33407,-0.05347,-0.13,0.35464,0.22707,0.023041,0.48218,0.023035,-0.66566,-0.7932,-0.23202,-0.71669,0.76277,0.53318,0.48216,-0.4616,-0.48709,-0.48713,-0.33407,-0.15552,-0.4106,1.7831,-0.56364,-0.30856,0.30361,0.17608,-0.92074,-0.41058,0.78828,-0.43609,0.27811,-0.18101,-0.94624,0.81379,0.099577,-0.48712,1.528,-0.53814,-0.10449,-0.8187,-0.74219,2.9819,0.099564,-1.2013,-0.86974,-0.53812,-0.078996,-0.35958,0.048561,0.99234,-0.10449,-0.89522,0.60972,-0.53814,0.023059,0.35464,-0.1555,0.58422,0.83933,-0.38511,-0.10453,0.074044,-0.30855,-1.0483,-0.20653,-0.28307,-0.10449,1.1454,0.58422,-0.053482,-1.4054,1.6301,-0.61465,-0.46162,0.32911,-0.10451,0.22708,-0.38506,-0.053476,0.58424,-1.0228,-0.18103,0.58421,0.20156,-0.13004,0.25259,-0.13001,1.4515,-0.33408,-0.81871,0.4312,0.15059,-0.41057,-1.0228,-0.027944,-0.81872,0.89027,-0.20655,-0.078984,-0.15552,0.2271,-0.12999,-0.002454,0.35465,0.12508,0.68625,-0.76771,-0.48711,2.3188,0.45668,-0.84424,-0.66567,-0.64014,-0.58915,-0.15554,-0.58916,1.375,-0.89524,0.60974,0.68626,-0.33407,-0.002491,0.6352,-0.41061,0.66074,-0.53813,-0.33407,0.27812,0.58421,0.17609,0.099577,-0.15549,-0.74218,0.20161,-0.38508,-1.0228,1.681,0.45666,-0.3851,-0.18103,-0.89522,0.7628,-0.30854,-0.69117,0.48219,-0.33408,1.2219,-0.53812,-0.56363,0.048549,-0.38508,-0.13002,0.2271,0.20158
