-0.053488,-0.078984,-0.053495,-0.027987,0.074062,-0.027969,-0.10449,0.048561,-0.027974,-0.002479,0.074062,0.099546,0.074044,-0.1555,0.2016,-0.078977,-0.027987,-0.002479,-0.13001,0.048525,-0.002479,0.023047,0.074057,-0.053451,-0.05347,0.023041,0.074038,0.15056,0.023035,-0.10449,-0.15549,0.15058,0.09954,0.023047,-0.053464,-0.078972,-0.027974,-0.027993,-0.002472,0.048543,0.048567,-0.15549,0.17609,-0.28306,0.30364,-0.30854,-0.002479,0.099546,-0.053495,0.048543,0.023054,0.099559,0.023029,0.099559,-0.027969,0.074069,0.023047,-0.027974,-0.053482,0.048531,-0.002467,-0.027962,-0.10448,-0.15551,-0.053476,0.074044,-0.002461,0.048543,-0.10448,-0.002479,0.099546,0.048536,-0.027962,0.048549,-0.002448,-0.078977,-0.13001,-0.13001,0.09954,0.023035,-0.002448,-0.12999,-0.13,0.074051,0.15057,0.20159,-0.13,-0.10451,-0.079008,0.12504,-0.027974,-0.078984,0.12509,0.023054,0.023054,-0.002485,-0.079002,-0.027969,0.12507,-0.053476,-0.027993,-0.027969,-0.027944,0.023047,0.048543,-0.002467,-0.002461,-0.078977,0.099534,-0.053495,-0.002467,0.074081,-0.1045,0.048536,-0.20652,0.50771,-0.25754,-0.28306,-0.027998,0.12507,-0.05347,-0.18101,-0.078996,0.12505,-0.027974,-0.027969,-0.002448,0.09957,0.023041,0.12506,-0.002485,-0.02798,-0.078972,-0.027944,-0.053476,-0.027969,0.074038,-0.053495,-0.078996,-0.078984,0.023047,-0.027974,-0.078984,-0.027969,0.023041,0.048543,0.17607,-0.078977,-0.002454,0.048549,-0.002454,-0.10449,-0.02798,0.048531,0.15059,-0.12999,-0.002479,0.099546,-0.053495,-0.15553,0.099564,0.074062,-0.15549,-0.002467,-0.078984,0.099546,0.048549,-0.12999,0.074051,-0.15553,0.074038,-0.10449,0.023047,-0.078966,-0.027969,-0.027987,0.15057,0.023047,0.048555,-0.23204,0.048536,-0.1045,0.32913,-0.10449,-0.181,-0.1045,-0.002485,-0.0535,-0.053488,0.074044,0.048567,0.048549,-0.027969,-0.078984,-0.002479,0.22708,-0.027998,-0.002472,0.074051,-0.002461,-0.002454,0.048555,-0.078984,-0.027969,-0.002479,-0.002479,-0.13002,0.22708,0.12505,-0.15554,-0.078984,-0.10449,0.09957,0.099564,-0.15548,-0.053464,-0.078972,-0.078972,-0.1045,0.12506,-0.1045,-0.05347,0.074044,0.35462,0.15057,-0.33407,0.074069,-0.078972,-0.1045,-0.078996,0.12506,0.048531,-0.07899,-0.027969,-0.027969,0.023041,-0.002454,-0.12998,0.12509,-0.10449,-0.027962,-0.027962,0.023041,0.023059,-0.078972,0.023041,-0.002467,0.048531,-0.053482,-0.002454,0.048567,-0.053495,-0.027974,-0.078966,0.023041,-0.053495,-0.002467,0.023059,0.048555,0.048536,-0.053488,-0.20653,0.17609,-0.002443,-0.078972,0.099559,-0.002461,-0.0535,-0.002491,-0.027974,-0.027974,-0.078959,-0.027956,-0.078996,0.074051,-0.002472,0.68622,-0.13002,-0.18104,-0.027987,-0.053482,-0.027956,-0.002467,-0.15551,0.17608,0.17609,-0.10448,-0.027969,0.099546,0.09954,0.023041,-0.10449,-0.027969,0.15057,0.023035,-0.1045,0.074069,-0.13,-0.1045,0.17607,0.048549,-0.027969,-0.05347,-0.002461,-0.13,-0.027956,-0.05347,0.048543,-0.02798,0.023023,0.099552,0.023035,-0.10447,0.023059,0.023047,-0.13001,0.17607,-0.027993,-0.053482,-0.002472,-0.002448,-0.053451,0.023047,-0.027969,0.048555,0.12507,-0.23204,0.40566,-0.23204,-0.079014,-0.053495,0.023029,-0.027993,-0.002472,0.048536,0.099546,0.023029,-0.002485,0.12505,0.099546,0.20157,-0.02798,0.023041,-0.078984,-0.05347,0.023059,-0.002454,0.074051,0.12506,-0.02798,0.048531,-0.027993,-0.027969,0.023059,0.074062,-0.002467,-0.053495,-0.078996,0.1761,0.099559,0.12505,-0.002479,-0.053488,-0.078966,-0.027956,-0.002467,-0.002485,-0.02798,0.2016,-0.10451,-0.002467,0.099564,-0.002461,-0.002467,-0.053488,0.023023,-0.1045,0.2271,-0.13001,0.5077,-0.15551,-0.10448,-0.10449,-0.10449,-0.25755,0.048531,-0.078984,0.27811,-0.05347,-0.053476,-0.078984,0.30363,0.023047,0.074062,-0.078977,-0.027969,-0.053488,-0.002491,0.09954,-0.15553,0.22708,0.22709,0.023035,-0.027969,-0.053476,-0.10449,0.023054,-0.002454,0.074062,0.023035,-0.002467,0.023047,-0.1045,-0.10449,-0.15551,0.099546,-0.053488,0.2271,-0.30855,-0.181,-0.027969,0.53321,-0.002448,-0.10449,-0.053476,-0.25753,-0.078977,-0.002472,0.12507,0.074044,-0.027969,0.15056,0.074044,-0.13002,-0.027969,-0.053482,-0.078977,0.09957,-0.053476,0.12507,-0.027974,-0.002472,-0.027987,0.099552,-0.13001,0.048536,-0.15551,0.20159,-0.13,0.048555,0.023054,0.023041,0.023047,0.15059,0.074033,-0.20655,-0.13,-0.002472,0.15059,-0.25753,0.15057,-0.28307,0.5332,-0.23203,-0.1555,-0.10449,-0.0535,-0.02798,-0.053495,0.074062,0.17609,0.074057,0.023029,0.25259,-0.10449,-0.12999,-0.078977,-0.25754,0.2526,0.12504,0.15058,0.048555,-0.027974,-0.10449,0.074062,0.38015,0.099552,-0.20653,-0.15551,-0.079002,0.023029,0.074057,0.17609,-0.181,0.32915,-0.20653,-0.23204,-0.07899,-0.15553,0.023035,-0.002467,-0.078984,0.048555,0.074075,-0.027962,0.023041,0.099564,-0.053506,-0.13001,-0.28306,0.50766,0.20158,0.12507,-0.12999,0.074062,-0.13,-0.23202,-0.74217,-0.18101,0.50768,0.023035,0.27812,-0.18103,0.91579,0.048536,-0.4871,-0.002461,-0.28305,0.91579,-0.66567,0.55872,0.12506,-0.48714,-1.3544,-0.027969,0.78826,1.5535,-0.25751,1.0434,-1.7115,-0.79324,0.48215,0.71179,-0.38514,0.0485,-1.4564,-0.18101,1.7321,1.1965,-1.6095,2.4972,2.0127,-1.839,-2.1961,1.681,-1.7369,-2.4001,2.2932,-0.58918,-0.79326,-0.61462,3.1861,-1.5584,-0.10457,0.66069,-0.64021,0.43113,1.0944,-0.46156,0.38025,1.1709,-0.41066,-0.89523,-0.5381,-0.56365,-0.20646,0.38013,-0.48706,1.1198,-0.18105,0.12507,-0.053488,-0.20642,-1.2011,-0.10461,1.8846,0.073995,1.2219,-1.1246,-0.56356,0.20156,-0.66567,-0.38513,-0.1045,1.8086,-0.97175,0.68622,-0.13007,-0.30854,0.17604,-0.33413,-0.69102,0.60953,0.20167,-0.74208,0.048512,0.023029,0.43118,0.40563,0.22708,-1.0227,-0.69108,0.60962,0.68612,0.94133,0.25263,-0.53812,-0.8187,-0.20652,-0.99726,1.1709,-0.20649,-0.053488,0.50772,-1.4564,0.73727,0.27812,2.2932,-0.56367,-0.74218,-0.64017,-0.027925,-0.23197,-0.71671,-1.7625,1.1708,0.25253,1.2219,-0.46156,-0.027962,-0.33404,0.20157,0.83919,1.0434,-1.5073,0.66077,0.099497,-0.61465,-0.25751,-0.51252,-0.7167,1.1964,0.09943,0.17606,-0.15542,-0.053488,0.22723,-0.41057,-0.18105,-0.69121,1.4769,-0.69122,-0.12999,0.27815,0.45664,-0.20653,-0.48711,-0.10451,-0.053482,-0.81868,1.375,-0.002454,0.09957,-0.027987,0.40567,0.048555,-0.30856,-0.84418,-0.76777,2.2677,-0.002461,-1.2523,1.0178,0.17611,-0.46161,-0.58918,-0.20657,0.35467,-0.2575,-0.053446,-1.5075,1.1199,0.15059,0.2781,0.099559,0.58421,-0.05339,-0.3851,-0.02798,0.15057,-0.20652,-0.002472,-0.12998,0.45667,-0.51261,0.48205,-0.5637,0.17616,-0.58911,0.68627,0.32916,0.27812,-1.1503,-0.41057,1.7321,0.12505,-0.66571,-0.25757,0.074033,-0.13002,-0.15553,-0.13002,0.73724,-0.053476,-0.41056,0.17611,0.074081,0.38017,-0.181,-0.38507,1.2729,-0.81871,-0.41055,0.78819,0.0741,0.71178,-0.89529,-0.61467,-0.12999,0.074051,-0.33407,-0.43609,0.83928,0.12506,0.43115,-0.99713,1.2474,-0.81876,0.12502,-0.86973,1.1964,-0.25753,0.27817,1.1708,-0.053488,-1.2268,-0.76768,0.58421,0.15059,-0.28306,0.15057,0.12505,-0.13004,0.71173,0.099588,0.099528,0.25257,0.45666,-1.3799,-0.58913,0.27812,1.5025,-0.56363,-0.74218,-0.002448,0.60974,-0.92072,0.17609,-0.48713,-0.43613,0.99232,0.40565,0.17607,-0.25756,0.25265,-0.41057,0.45668,-0.053513,-0.35952,-0.7932,0.89031,0.048561,-0.33407,-0.64015,-0.20652,0.68626,-0.25756,0.6352,-0.7422,-0.10447,0.76283,-0.7167,-0.079075,-0.10449,0.023029,0.048573,0.074062,-0.002436,0.17614,-0.5126,0.63518,0.22706,0.3546,-0.20655,-0.51261,-0.92073,1.9106,-0.94626,0.50772,-0.69116,-0.1045,0.048518,0.17607,-0.027931,0.023072,0.09954,-0.20652,-0.30855,0.53317,0.2526,0.53318,-0.81868,-0.56356,-0.38519,0.83923,-0.027913,0.12505,0.023047,0.73729,-0.48708,-0.74223,0.53325,-0.30858,0.81378,1.0179,-0.99725,0.17603,-0.7167,-0.078996,0.023047,-0.181,-0.15548,-0.053482,0.66074,0.30363,-0.53809,0.38014,-0.13004,-0.002454,0.45667,0.25262,-0.23202,-0.76768,0.81381,-0.35956,-0.71668,0.68622,0.27811,-0.51263,-0.61464,-0.027962,0.22707,0.32912,0.22713,0.074069,0.074057,-0.46162,0.22711,0.20163,0.38016,-0.25756,0.20158,-0.25757,-0.1045,0.30361,-0.30855,-0.13,-0.56353,0.50766,0.63521,-0.33407,0.40563,-0.23205,-0.3596,-0.078977,-0.2065,0.25274,-0.61471,0.96672,0.94134,-0.181,-0.30854,-0.66565,-0.28303,-0.15549,0.35464,-1.4564,1.3239,0.27812,-0.25754,0.32913,-0.25756,-0.28304,0.83931,0.40567,0.074033,-0.3851,-0.20649,0.48217,-0.56363,-0.10449,0.27811,-0.15551,-0.20653,-0.64018,-0.18103,0.22713,-0.30853,0.074069,0.48218,-0.053525,-0.027993,-0.30851,0.55872,-0.28308,0.50768,0.89028,-0.6657,-0.64008,-0.078984,-0.51265,0.023023,0.53321,-0.078984,-0.18103,0.3036,0.30361,-0.25751,-0.33407,-0.15548,0.22708,0.099577,0.12504,0.3801,-0.48709,-0.33406,0.30366,-0.51262,-0.4616,0.8393,0.2781,0.2271,-0.56365,-0.12999,-0.81866,-0.12998,0.32907,1.1964,-0.4871,-0.51267,1.528,0.17609,-0.69116,-0.1045,0.15059,-0.02798,-0.3851,-0.15549,0.099564,0.023041,-0.02798,0.60972,-0.33406,0.83927,-0.20655,-0.66558,-0.13001,0.58419,-0.3851,-0.53817,-0.41058,0.25263,0.73728,-0.1045,-0.053488,-0.33406,0.43118,0.20156,-0.15554,-0.30858,0.94133,-0.58912,-0.5381,0.89032,0.023065,-0.46159,-0.028018,0.074069,-0.38513,1.3494,-0.46157,0.12508,-0.30857,0.30363,0.048567,-0.33403,0.27813,0.2526,-0.41058,-1.1758,0.71174,-0.35957,0.048549,-0.28305,-0.89527,-0.43601,0.91582,0.30361,-0.25754,0.45666,1.426,0.074051,-0.4871,-0.89522,-1.1248,0.96681,-0.28303,0.30363,-0.61467,0.43113,0.12504,0.17606,-0.027993,-0.48712,-0.69115,-1.0228,0.8648,0.25263,0.048561,1.1708,0.58418,-1.1502,-0.18101,0.099564,0.58421,-0.25757,-0.94626,1.1964,0.53319,-0.002491,-0.69119,-0.61465,-0.48711,-0.76769,1.1709,0.78826,0.22711,-0.053488,0.32913,-0.64017,0.48216,-0.58914,-0.35957,0.45669,2.0127,-0.5892,-0.48712,-0.4361,-0.94624,-0.18101,0.27814,0.78829,0.099546,-0.4106,0.15057,-0.46162,0.15061,0.023054,0.048561,0.048536,0.20158,0.17608,-0.35957,-0.66565,0.63525,0.074069,0.73724,-0.35959,0.91586,-0.38508,-1.3034,-0.76771,0.048555,0.074038,0.32912,0.048536,1.1709,1.1454,-0.51261,-1.1248,-0.58913,0.15059,0.27809,0.17604,0.73725,0.22712,-1.0992,0.3291,0.27806,-0.15551,-0.25756,-0.053495,0.17608,0.8393,0.22712,0.4312,-1.1758,0.20159,-0.30855,0.45671,-0.48711,0.38016,-0.053506,-0.002485,-0.079002,0.023047,-0.33409,0.40563,-0.079039,-0.46164,-0.25753,-0.69118,-0.94627,2.3697,-0.64014,-0.078928,-0.20654,-0.028018,0.45664,-0.28305,-0.18101,-0.43606,0.43117,-0.10449,0.73728,0.17612,0.45664,-0.66568,-0.92076,-0.30857,0.45666,-0.18102,-0.66565,1.2985,-0.66573,-0.41054,-0.002436,0.53323,0.15059,-0.23203,-0.18101,0.27813,0.17609,-0.30857,-0.10452,0.023023,-0.53815,0.76275,-0.15551,0.099546,-0.7677,0.25263,-0.002479,-0.18103,-0.56362,0.048536,0.22708,0.40563,0.45667,-0.07899,0.35462,-0.053513,-0.28301,-1.0482,1.0434,0.2271,-0.13,-0.71667,0.45669,-0.66565,-0.61465,0.17609,0.27814,-0.002479,-0.027962,-0.3596,1.1964,0.40568,-0.43611,-0.027969,-0.053464,-0.43611,-0.25758,0.63526,-0.2065,-0.002467,-0.23205,0.20159,0.20158,0.3036,-0.053488,-0.64015,0.35465,0.27812,-0.002461,-0.48711,0.50767,-0.053488,0.17609,-0.28305,-0.64014,-0.76764,0.20161,1.4259,-0.20653,-0.25754,-0.027938,0.1251,-0.4361,0.22712,-0.74219,-0.3341,0.12507,0.81378,0.023041,-0.97177,1.528,0.074044,-0.4616,-0.28306,-0.46161,-0.76774,0.5332,0.22715,0.58422,0.38014,-0.13,-0.28306,-0.13,-0.71672,0.38015,0.048567,-0.23204,0.40565,-0.58903,0.3036,0.12505,0.074038,-0.33409,0.15057,0.30362,0.15056,0.38016,0.12506,0.17609,-0.94622,-0.5126,-0.027931,0.86475,0.25259,-0.28306,-0.43609,-0.35956,0.55869,-0.20652,-0.23201,-0.43603,0.66067,0.55861,-0.30854,-0.15548,-0.76766,1.4005,-0.84422,-0.28305,-0.20652,-0.18101,-0.43609,0.38014,-0.053495,0.17607,1.2219,-0.89523,0.17607,0.40566,0.43118,-0.46161,-0.20651,0.45663,0.176,-0.92067,1.579,-0.46161,-0.232,-0.30854,-0.66569,0.73722,-0.30857,0.30364,-0.48712,0.63524,0.35464,0.099564,0.30364,-0.61464,-0.84425,0.048549,0.40566,0.63524,-0.5126,0.048567,-0.10451,-0.53814,0.25261,0.04858,0.43115,-0.84422,0.73723,0.66075,0.22712,-1.3288,-0.48715,1.2729,-0.10449,-0.10447,-0.30855,0.50771,-0.43608,-0.46164,-0.079021,0.099552,0.074038,-0.12998,0.22711,0.099657,-0.33409,0.32913,-0.25753,0.48208,-0.027987,0.58425,-0.66564,-0.30856,0.55871,0.35467,-0.25754,-0.002461,-0.8187,-0.1045,-0.53815,-0.25756,-0.15553,1.3239,0.71178,0.25268,-0.35956,-0.23207,-0.38512,0.22708,0.45666,-0.38509,-0.81873,0.023072,0.99237,0.5332,0.023029,-0.51265,-0.15553,0.30364,-0.28303,-0.86973,-0.41061,0.96683,-0.23208,0.40569,0.40568,-0.027931,-0.33406,-0.18105,0.32912,-0.61467,0.53319,-0.10451,-0.46162,0.63523,0.22712,-0.64015,0.048536,-0.15554,-0.23208,-0.053384,0.40561,0.20156,-0.078928,0.22711,-0.30853,-0.35946,0.073989,0.40555,0.09957,-1.0483,0.71172,-0.38504,-0.64011,1.2985,-0.33408,0.20159,-0.027998,1.0433,-0.84422,-0.61465,0.30362,0.09957,0.32915,-0.23203,-0.002461,0.12506,-0.078996,-0.30856,0.20159,-0.002461,-0.38508,1.4005,0.45666,-0.61468,-0.4105,0.20158,0.12508,-0.46162,-0.33407,0.099552,0.048543,-0.41056,0.17609,-0.35956,0.22708,0.40564,-0.079002,0.09957,0.048543,-0.2065,-0.10448,0.099559,-0.38503,0.50773,-0.078977,-0.74218,-0.053506,0.89031,-0.97174,0.43119,-0.20651,-0.23205,-0.12998,0.38007,0.17601,-0.5381,0.25263,0.58422,-0.078996,0.12509,-0.41057,0.27811,-0.64005,-1.0738,1.9616,1.0944,-0.28305,-0.30855,-0.71668,-0.25753,-0.28305,0.22712,-0.12998,-0.027938,-0.8187,0.63524,0.60972,0.1761,-0.48712,0.86482,-0.43609,-0.002461,-0.58913,-0.30852,-0.078984,0.048543,0.048561,0.32918,0.68626,-0.48711,0.099552,-0.66568,-0.078935,0.074075,0.20159,-0.20649,0.15059,-0.053458,0.58422,0.20159,-1.1503,0.50768,0.27812,-0.28306,0.22707,-0.30852,0.048543,0.60968,-0.28297,-0.002479,0.023017,-0.53814,-0.81873,0.63522,0.48218,0.63523,-0.58913,0.27812,0.38016,-0.002461,-0.43613,-0.13002,0.25259,0.048561,-0.48711,-0.18103,0.25262,-0.1045,0.12508,0.20159,-0.18098,-0.20648,0.048555,0.023035,0.15064,-0.13002,1.2984,-0.66569,0.94139,-1.0228,-0.13004,0.048531,-0.15552,-0.002412,-0.76768,-0.30863,0.91582,0.38018,-0.48714,-0.15541,0.20161,0.71175,-1.0228,-0.23207,-0.64018,0.17609,0.58422,0.25261,-0.33407,-0.10452,0.89031,0.63524,-0.81869,0.81381,-0.43609,-0.41059,0.63519,-0.0535,-0.28305,0.91581,0.099552,-0.56363,-0.46161,-0.48712,-0.58907,0.15059,0.074057,0.40561,0.27809,-0.028018,0.023041,-0.12996,0.17608,0.8648,0.45667,0.12508,-0.002467,-0.92074,-0.86974,-0.43612,0.15055,0.074038,-0.28307,0.9413,0.023035,-0.43609,-0.1555,1.5025,-0.69118,-0.9463,0.91579,0.17607,-0.71656,-0.30854,0.15058,0.5332,0.074044,-0.18105,-0.43604,0.30368,-0.58927,0.86474,0.76278,-1.1503,-0.053397,0.023047,-0.33404,0.099564,0.12505,-0.48712,-0.33402,1.0179,-0.027969,0.73728,-0.12999,0.023041,0.074062,-0.41057,-0.30854,-0.43608,-0.027962,0.32915,-0.078977,-0.28303,0.048555,0.43117,0.35465,0.20161,0.25262,-0.43608,-0.25751,-0.1045,1.1199,0.15058,-0.81872,-0.41059,-0.30854,-0.002461,0.099546,0.15054,0.55871,-0.4871,0.2016,0.27808,-0.20656,-0.53803,1.7575,-0.7422,-0.38508,0.35465,-0.53813,-0.6911,0.074081,0.12507,0.17611,-0.30855,0.17609,0.12508,-0.3851,0.58421,0.17606,-0.23205,-0.20654,-0.43606,-0.385,-0.07907,-0.053519,1.6811,-0.1555,-1.0483,-0.58914,1.3494,0.78826,-0.35959,-0.15553,-0.25757,-0.7422,0.30361,0.76273,0.43115,-0.61467,-0.027962,0.17607,-0.027993,-0.28308,-0.79321,-0.10445,0.60975,-0.3851,-0.18106,-0.38509,0.3547,0.45669,0.22707,0.45667,-0.053476,0.22711,-0.71668,-0.76772,-0.181,0.40568,0.09957,0.048567,0.12505,0.71167,-0.74218,0.38016,-1.0483,-0.38508,0.50772,0.8393,-0.35959,-0.1045,-0.20654,0.023054,-0.10447,-0.20653,-0.76771,1.2474,-0.18105,-0.3341,-0.25757,0.55871,-0.64015,-0.10449,-0.20655,-0.53815,0.83928,0.023035,0.86479,0.099577,-0.8187,-0.12998,-0.33404,0.63526,-0.30855,-0.15553,-0.3341,-0.28298,-0.18103,0.68622,-0.15556,0.45666,-0.25754,0.25261,-0.1045,-0.61465,0.32913,-0.58915,-0.078959,0.20158,0.60962,0.78833,-0.53807,-0.8442,0.15059,-0.28309,0.023035,0.048543,0.22707,0.68622,-0.38508,-0.38507,-0.92074,1.0688,-0.38511,1.2219,-0.51265,-0.18103,0.8393,-1.1503,-0.079021,-0.027987,0.5077,0.09957,-0.38506,0.38016,0.55872,0.8393,-1.2268,-0.71663,0.86476,0.15057,-0.64016,0.048518,0.68622,0.20158,-0.30858,-0.33399,-0.71674,1.5535,-0.5126,-0.4106,0.023041,0.32913,-0.38508,0.35465,0.27814,0.099564,-0.28307,-0.2065,0.30366,0.50771,-0.30855,-0.10449,-0.4616,-0.078972,0.30363,0.22713,-0.7932,0.15057,1.2474,-0.41051,0.02298,-0.64024,-0.51259,-0.30853,0.30363,0.55875,0.76276,-0.51263,0.15058,-0.053482,-0.3341,-0.30857,-0.89518,1.5535,0.96679,-0.002485,-0.61465,0.60968,-0.76773,0.20156,-1.0992,0.40567,0.17608,-0.38508,0.48214,0.3036,-0.13,-0.64014,0.50771,-0.30855,0.40566,-0.10448,0.12504,-0.20656,-0.51264,0.55873,-0.053568,0.12506,0.83933,-0.69115,-0.12999,-0.053506,1.477,-0.94625,-0.0535,-0.4106,-0.53812,0.22703,0.38011,0.15061,0.35466,-0.23201,0.17612,-0.8187,0.12507,0.81378,-0.3341,0.048531,-0.5891,-0.10446,0.40566,0.023017,0.86478,-0.46164,-0.76767,-0.12997,0.91583,-0.56367,0.07402,-0.56366,0.50768,-0.33406,0.15058,0.27812,-0.13003,-0.56366,0.58421,-0.2065,0.89028,0.2781,-0.3851,-0.69117,0.40568,-0.41061,0.27814,-0.23205,0.40564,0.60974,-0.15551,0.48217,-1.1758,-0.43609,1.2729,0.15057,-0.86973,0.4822,1.2219,-0.13002,-0.56366,-1.1502,0.91584,-0.43609,-0.002485,0.35461,-0.20653,0.50767,0.07402,-0.25751,-0.053446,0.63515,0.32913,-0.64011,-1.2268,0.43118,1.2474,-0.79319,0.3036,-0.38509,0.023035,-0.28306,-0.20651,0.76279,1.1964,-0.69119,-0.43609,0.48215,-0.027962,-0.35956,0.1506,0.09957,-0.58913,-0.002472,0.25262,0.45667,-0.46161,-0.61464,0.73726,0.32911,-0.64018,0.45663,-0.23193,-0.51261,0.048549,0.30358,-0.18108,0.22708,0.3036,-0.027993,-0.35957,-0.053427,0.35467,-0.002485,-0.13,-0.76774,0.94133,0.66078,-0.76771,-0.13002,-0.92068,-0.053573,0.89023,0.12513,-0.56362,0.023054,0.94133,-0.79321,-0.53815,0.60969,0.27812,0.40568,-0.181,-0.7422,0.45669,0.76272,-0.35957,-0.81871,-0.28304,0.25259,0.30361,0.8138,-0.027944,-1.0483,-0.053476,0.38012,0.68622,-0.84426,0.81378,0.2781,-0.61457,-0.94626,0.40565,0.023035,1.7065,0.83928,-0.20651,-1.1758,0.15059,0.22711,0.81376,-0.25757,-0.33405,0.074075,-0.43612,-0.33409,0.35464,-0.15553,-0.10451,0.17609,0.81379,0.76277,-0.078966,-0.46162,-0.41059,-0.13,0.2526,-0.99727,1.2474,-0.23205,-0.07899,-0.23206,-0.28305,-0.25748,-1.0482,0.30352,0.96676,0.17609,0.15058,-0.20652,-0.053451,0.30367,-0.12997,-0.33405,0.78829,-0.30857,-0.13002,-0.053421,0.023005,-0.15549,-0.46157,-0.30854,0.074057,0.66074,-0.20651,-0.053464,0.17607,0.48217,-0.58914,0.048555,0.30361,-0.13002,0.023047,0.38016,-0.64014,-0.053464,0.17607,-0.13,0.50768,0.68626,-0.25757,-0.81873,-0.41059,-0.76768,0.91583,0.27813,-0.81873,0.50766,0.73723,-0.1555,0.1251,0.099583,-0.53817,0.4567,0.048634,0.91569,-0.38516,-0.053446,-0.79315,-0.18103,0.048555,0.63521,-0.69116,0.50769,0.048525,0.38014,0.78824,-0.66568,-0.027993,0.15058,-0.48708,-0.56358,0.91582,0.60973,-0.69119,-0.61465,0.45669,-1.1504,1.1199,1.4515,-0.28303,-0.66564,-0.66565,0.48219,-0.4871,-0.79318,0.22708,1.1963,-0.43611,0.048573,-0.4871,0.023059,-0.15549,-0.15549,0.048567,0.8393,0.30357,-0.5382,0.71178,0.12509,0.53323,-0.69121,-0.10449,-0.76766,0.20162,0.25259,-0.7167,-0.078984,-0.6146,0.048531,0.329,0.35464,-0.51249,0.35472,0.15051,-0.078959,-0.13,0.48216,-0.23209,-0.89525,1.0179,-0.078959,0.22712,0.66073,-0.61465,-0.23203,-0.71671,0.32911,-0.1045,-0.053482,-0.20652,-0.13001,-0.56365,0.99234,0.023047,0.1505,-0.1555,-0.027969,-0.25754,0.1251,-0.18104,1.0688,0.50766,-0.25756,0.68624,-0.53815,-0.74221,-0.002423,0.074013,-0.053592,0.4822,-0.18101,-0.053476,-0.078947,-0.079014,0.5331,-0.027871,0.17613,0.099613,-0.33409,0.09954,-0.25754,-0.002467,-0.15551,0.43114,-0.86976,0.58419,-0.23202,0.68626,-1.0738,-0.28303,1.6555,-0.10449,-0.92076,0.25261,1.1199,-0.76773,-0.15553,0.12507,-0.053488,-0.1045,0.50765,-0.30857,-0.69118,0.58422,0.58416,-0.7167,0.20166,0.12495,0.35456,-0.027944,-0.48709,-1.2523,1.7576,-0.18104,-0.56364,0.17609,-0.28307,-0.15551,-0.23203,0.32913,0.2526,-0.053421,-0.25755,-0.028023,-0.41058,0.35456,0.07416,0.60974,0.25262,-0.51263,-1.1248,0.58422,0.35465,-0.079008,-0.33401,-0.334,0.76256,0.12502,-0.5126,0.55873,0.1761,-0.027969,-0.15549,-0.20652,-0.18101,-0.1045,1.1454,-0.30859,-0.71668,0.32913,-0.38506,-0.30852,0.35467,0.48214,0.048487,-0.30853,-0.18097,0.17609,-0.10453,-0.46153,-0.02792,0.58419,0.50754,-0.56361,-0.28308,-0.053476,1.2729,-0.51262,0.023047,0.91583,-0.81866,-1.1503,-0.56365,0.9413,1.9361,-0.79322,-0.56366,-0.20655,-0.79322,0.96681,-0.20656,0.58422,-0.23201,0.40567,-0.13001,0.25262,0.30363,-0.48714,-0.38507,-0.002423,0.60967,0.45664,-0.46159,-0.38508,-0.69113,0.074087,0.12498,0.4822,-0.25754,0.76278,0.17608,0.35462,-0.94625,0.63525,-0.56362,0.099583,-0.84425,0.6862,0.30363,0.38016,0.17611,-0.94624,-0.58916,0.43116,-0.43606,0.83927,1.4515,0.12505,-0.48716,0.17608,-0.12998,-0.35958,-0.71666,0.048536,0.8138,-0.69113,0.5841,0.22709,-0.74212,0.20157,-0.027969,0.15062,-0.5636,-0.89522,0.83925,-0.079021,-0.002436,0.27813,-0.078996,-0.25757,0.38015,-0.81876,2.0891,-0.43607,-0.86969,-0.33403,-0.079021,0.099564,-0.13001,-0.38508,0.12508,-0.13002,1.426,0.20159,-0.38511,-0.81871,0.38019,0.32907,0.50762,-0.23201,-0.33402,-0.38506,-0.30858,-0.33408,0.73725,-0.1555,0.048555,0.73725,1.1199,-0.46164,-0.92072,0.63526,-1.0482,0.12507,0.38016,-0.10452,-0.56363,-0.46159,1.426,0.17605,-0.18099,-0.10454,-0.13005,-0.12999,-0.35954,0.4057,-0.1555,-0.002472,-0.48714,0.50771,0.32919,0.78825,-1.1249,-0.30848,0.40561,0.83928,-1.1758,0.9668,-1.4054,-0.078935,-0.13007,1.0688,0.27816,-0.33405,-0.30854,0.63526,0.50771,-0.6657,-0.12997,-0.079008,0.2781,0.27813,-0.20652,-0.43606,-1.2013,1.2474,0.7117,0.63521,-0.20652,-0.51259,-0.66565,-0.38507,0.074051,0.17609,0.83927,0.35463,-0.23205,-0.18101,0.074087,-0.002479,0.17608,-0.2065,-0.12999,-0.18103,0.73726,-0.64014,-0.74217,0.32915,0.89024,0.22705,0.20156,-0.97174,0.40569,-0.53812,-0.079008,0.099583,-0.13,-0.18092,0.38014,0.45653,0.5842,-0.12999,-1.0482,0.66075,-0.81868,-0.002497,-0.4616
-0.10449,0.023029,-0.027993,-0.18101,0.074057,0.2271,0.17611,-0.027962,-0.02798,-0.027987,-0.15551,-0.078984,0.30363,0.074075,-0.15551,-0.28307,0.25259,-0.28306,-0.20653,-0.027969,0.15058,0.27812,-0.002491,-0.027974,0.12508,-0.05347,-0.053482,-0.1045,-0.002485,0.048549,0.023035,-0.078972,-0.002454,-0.027969,0.20159,0.048536,-0.10452,-0.18103,-0.027962,0.12507,0.048536,-0.0535,0.2526,-0.027987,-0.18102,0.074051,0.048561,-0.23202,-0.1555,-0.18101,0.32913,0.023023,-0.027993,0.074062,0.32913,0.12508,-0.35956,-0.20652,-0.18102,-0.20653,0.25262,-0.079002,0.023023,0.048543,0.12507,-0.002454,-0.05347,0.023035,-0.10449,-0.002485,-0.002479,0.023047,0.023059,0.023059,0.074057,-0.07899,-0.10451,0.48216,-0.23204,-0.25755,0.2526,-0.28303,-0.1555,0.17609,0.38016,-0.002485,-0.13002,-0.002491,-0.28306,-0.15551,-0.1045,-0.002443,0.048567,0.12507,0.074057,0.12505,0.048531,0.023035,-0.10449,-0.15549,0.099564,0.048555,0.22709,-0.053482,-0.078972,-0.12999,0.099546,0.074038,-0.12999,-0.078996,0.023029,0.048549,0.048573,-0.13,0.12505,0.099564,0.048561,-0.1045,-0.10452,-0.15551,-0.002448,-0.002461,0.099588,0.048561,0.40566,-0.51262,-0.078966,-0.002472,-0.053488,-0.079008,-0.13001,-0.002467,-0.07899,-0.002472,0.12505,-0.002485,-0.078996,0.15058,-0.078984,0.023047,-0.053458,-0.078977,-0.15549,0.074075,-0.053464,0.12509,0.099564,0.15057,-0.002467,-0.027974,-0.027974,-0.027974,0.099552,-0.02798,-0.15551,-0.07899,0.074057,-0.1555,-0.002461,0.38016,-0.002472,-0.18102,-0.10451,-0.10449,-0.20652,0.50769,-0.078972,0.17608,-0.20652,-0.027993,-0.13001,-0.10449,0.074062,0.12509,0.15057,-0.002467,0.074069,-0.1555,-0.079002,0.023023,0.12508,-0.078972,0.048555,0.023035,-0.078984,0.023035,-0.002467,-0.078972,-0.13001,-0.078972,-0.078977,-0.13,0.15057,-0.078984,0.35464,0.099577,0.023041,-0.002485,-0.10449,-0.15551,-0.10449,-0.027974,0.12506,-0.027993,0.2271,-0.002461,-0.027962,0.023041,0.023023,-0.053482,0.15059,-0.25752,-0.23203,-0.002467,0.15057,0.27812,-0.027962,-0.13001,-0.10449,-0.053482,-0.002472,-0.079002,0.20158,0.074062,0.074057,-0.027974,-0.053488,-0.10449,-0.078972,-0.078984,0.20159,0.12507,-0.078966,-0.002461,-0.027969,-0.053464,0.048567,-0.05347,-0.002461,-0.13,-0.25753,-0.20652,0.40568,0.099595,-0.1045,-0.002448,-0.053464,0.25262,-0.10449,-0.20652,-0.027974,-0.027969,0.048549,0.023041,0.023035,-0.027974,-0.002467,-0.053482,-0.078996,0.023041,0.20159,0.17611,0.12509,-0.43609,-0.15551,0.17607,-0.079008,0.09954,0.15057,-0.053482,-0.10449,-0.181,0.074062,0.30361,-0.13,-0.027962,-0.1555,0.048531,0.023023,0.048573,-0.027962,-0.027998,-0.002467,-0.027962,0.09957,-0.13002,-0.078984,-0.15549,-0.027974,-0.0535,0.12507,0.074075,0.099588,-0.027969,-0.002454,-0.13001,-0.002479,-0.1045,0.12507,-0.10449,-0.027969,0.099552,0.43118,-0.38506,-0.35957,-0.002485,-0.002467,0.048549,0.074038,0.074044,-0.20652,0.048561,0.15059,0.45666,-0.002472,-0.12999,-0.07899,-0.027974,-0.079002,0.048549,0.099564,-0.027956,-0.053476,-0.002479,-0.002485,-0.002461,0.12509,0.15059,-0.10449,-0.15551,-0.23203,-0.079002,-0.053495,0.38016,-0.027962,0.71174,-0.25755,-0.18104,-0.25756,0.2526,-0.05347,-0.078972,0.023035,0.023041,-0.13001,0.023029,0.12507,0.2016,-0.05347,0.048536,-0.1045,0.048536,0.023023,-0.053458,-0.05347,0.099564,-0.002467,0.12505,0.074038,-0.079002,-0.13002,-0.13,-0.15549,-0.002448,0.12507,0.22708,-0.002485,-0.078996,-0.18101,0.023035,0.2271,0.048549,-0.002467,0.023054,-0.027956,-0.002454,0.27814,-0.20652,0.048561,-0.027969,-0.002467,0.12507,0.048549,-0.05347,-0.053476,0.68625,-0.002454,-0.20652,-0.23202,-0.13001,-0.027987,-0.30858,0.40566,0.15057,-0.079008,-0.15553,-0.30857,0.20158,0.38013,0.074038,-0.15553,-0.10452,-0.002472,-0.027987,-0.18103,-0.0535,0.099546,0.2781,0.048531,0.048525,-0.002479,-0.053482,-0.078996,0.048536,-0.002479,0.074038,0.099546,0.074038,0.048543,0.023035,0.048555,-0.027956,-0.10448,-0.027969,0.22709,0.09957,-0.1045,-0.13001,-0.25753,-0.15549,0.099583,-0.25753,0.40566,0.2781,-0.46162,-0.02798,0.023041,0.12507,-0.02798,0.2781,-0.027993,-0.078996,-0.23203,-0.002461,0.17608,0.1761,0.30364,-0.05347,-0.078996,-0.053482,-0.07899,-0.10449,0.048549,-0.002479,-0.079008,0.074038,-0.0535,-0.053488,-0.15551,-0.027956,-0.002454,0.048561,-0.002448,-0.053476,-0.078984,-0.10451,0.048531,0.50768,-0.25754,-0.1555,0.023059,-0.078984,-0.15553,0.50768,-0.10449,-0.02798,-0.1555,0.12509,0.12507,0.2271,-0.15553,-0.15551,-0.002467,0.048555,-0.10447,-0.1555,-0.027969,0.074033,-0.053488,0.12508,0.023041,-0.027969,0.048555,0.048567,0.074069,0.023041,-0.05347,-0.10449,-0.002467,-0.07899,-0.053464,-0.10448,-0.181,-0.002448,0.12509,0.09957,-0.1045,-0.078996,-0.13001,0.20161,0.023054,-0.10449,0.12509,0.20161,-0.25752,-0.33405,0.35466,-0.33406,-0.23203,0.38015,0.2271,-0.12999,-0.25752,0.20161,-0.078972,-0.10449,0.048549,0.20158,0.048549,-0.027974,0.048543,-0.078984,0.023047,0.048561,0.099577,-0.027956,-0.002454,-0.002461,-0.078972,0.048573,0.22704,-0.05347,0.12507,-0.002448,0.023059,-0.002443,-0.12999,0.048549,-0.12999,-0.078972,-0.027962,-0.053488,-0.053482,0.17607,0.074038,0.12506,0.15057,0.27812,-0.23202,-0.25753,0.2271,-0.027969,-0.10449,-0.15551,-0.027993,0.099559,0.15057,-0.10448,0.12509,-0.18101,0.023047,-0.15549,-0.05347,-0.078966,-0.002454,0.048561,0.023059,-0.027956,-0.1555,0.099577,-0.078977,0.048549,-0.002467,-0.027974,-0.078977,-0.027956,-0.002467,0.048555,0.023041,-0.078996,-0.053476,-0.002454,0.15058,0.15059,-0.078984,0.023041,-0.053482,-0.07899,0.12507,0.20158,-0.20653,-0.41057,0.25262,0.099564,-0.23202,0.12509,-0.181,0.32914,0.15059,-0.20652,0.12508,-0.1045,0.099564,-0.33409,-0.23205,0.35464,-0.10448,-0.027993,-0.10448,0.27808,-0.028018,-0.12989,0.023035,0.17602,-0.35952,-0.23195,0.60959,1.1708,-1.0992,-0.48703,-0.4871,0.53325,-0.20644,-0.10447,0.12492,0.63503,-1.0993,-0.81875,0.99237,1.8853,0.48221,-0.46157,-1.6604,0.50728,-1.0224,-3.0888,3.0074,-0.61488,2.9815,0.43111,-0.30828,0.12521,-3.7004,2.4712,-0.71681,1.2218,-0.6146,-1.864,0.30336,1.2981,1.783,-2.1704,1.5788,-0.8187,-0.84425,-0.56358,-0.61451,-0.3593,-1.3285,1.9358,4.6647,-0.6657,-2.7313,0.35434,0.45691,-0.23197,-1.0226,0.30351,0.91554,-0.33401,-0.61457,-0.002247,-0.38501,2.1906,2.0889,-0.53821,-2.0938,-0.58887,-1.4561,-1.1753,-0.84404,2.5735,2.0886,-0.76777,-0.71662,0.38023,-1.1247,-0.66555,0.20159,2.0379,-0.18113,-0.41061,0.86478,1.2219,-1.3543,-0.84417,-0.48707,0.12508,0.55869,-0.30858,0.22711,-0.99726,-0.74215,1.2474,0.09957,-0.23201,1.1199,0.17601,-0.38516,-0.027993,-0.30857,-0.33405,-0.51255,0.38006,0.4312,-0.25746,-0.053506,0.023096,0.099369,0.38008,0.66078,-0.53805,-1.4818,0.35466,0.81381,0.32922,0.3291,-0.2577,-0.56364,-0.66565,-0.1555,-0.18111,0.63553,1.9868,0.35463,-0.20651,-0.69115,-0.92067,-0.64007,-0.79303,0.40549,0.86466,-1.2777,0.53306,1.2728,-0.35946,0.27816,0.66073,-0.23205,0.35465,-1.4564,-0.4361,1.0178,-0.13001,-0.38507,-0.2065,-0.58909,-0.18104,0.3036,0.22712,0.3036,-0.027993,-0.30857,0.66072,-0.56365,0.71176,-0.81871,0.099559,-0.51262,0.048536,2.1147,-1.6095,0.63521,-0.41056,0.96684,0.27807,-1.2013,-0.12997,-1.4818,0.27816,0.76254,0.89021,-0.10447,0.45677,-0.84419,0.45677,-0.76777,0.38012,0.074069,0.17609,0.17611,-0.33408,-0.43606,-0.1045,-0.48715,0.20159,-0.46157,0.15058,0.12511,0.50752,0.048531,0.50775,-0.41056,0.2271,-1.2521,0.81345,1.9616,-1.3032,-0.078977,0.96675,-1.3288,0.099601,-1.1248,-0.46162,-0.23205,-0.027974,-0.027993,1.1198,0.3291,0.048555,0.20159,0.91579,-0.20653,-0.10447,-0.74218,1.0179,-0.74218,-1.3542,0.099577,1.9102,1.4259,-1.8899,1.3496,-1.2778,-0.53807,-0.86975,-0.43609,1.1453,0.048543,0.22713,0.023065,-0.20652,0.73725,0.3291,-0.18103,-0.58913,-1.3288,0.6096,1.4514,-1.1503,0.4567,-0.53812,0.60971,0.20159,-0.35957,-0.51265,-0.5636,-0.41058,0.17607,0.81378,0.15056,-0.13002,0.32913,-0.56366,-1.1248,0.48225,1.63,-0.053513,-0.10447,-0.43609,-0.74218,-0.053544,-0.20652,1.0688,0.40568,-0.79318,0.099546,-0.48714,0.20159,-1.4054,1.4006,1.2217,0.048433,-0.46153,1.0433,-0.53812,-0.38499,0.17612,0.32915,-0.5125,-0.79322,-1.1248,1.9104,-0.86974,-0.10449,0.48216,-0.002472,-0.48711,0.48216,-0.48713,-0.56366,1.2474,0.12507,-0.12996,-0.002454,-0.079014,-0.079002,-0.23194,-0.64007,-0.002552,0.55856,0.15054,0.32924,-0.43605,-0.38512,1.579,-1.0993,-0.33407,-0.66567,0.73725,0.4822,0.048543,0.32914,-0.28308,-0.10449,-0.23201,0.074118,-0.28314,-0.10452,-0.33399,1.4004,0.27791,0.17619,-0.078892,-0.35953,-0.35955,-0.05347,0.22699,-0.5381,-0.28306,-0.64017,1.2984,-0.18098,0.58416,-0.15552,0.55876,-1.3288,0.20157,0.71168,0.27812,-1.0227,0.40556,-0.5382,-0.02784,-0.38507,-0.25756,0.63523,1.2729,-0.53811,-0.46162,-0.51267,0.99233,-1.1503,-0.079008,1.0178,0.20157,-0.4616,-0.079021,-0.20658,-0.07899,-0.20646,0.53309,0.86464,-0.64001,-1.0993,0.53319,-0.81869,0.99234,0.55866,-0.61479,0.17609,0.048592,-0.28303,-1.0483,0.02301,3.5941,-0.30858,-1.1248,-0.18105,-0.74223,-0.6401,-0.38509,0.68628,-0.25758,1.477,-0.53814,0.15057,-0.10447,-0.5891,0.60974,0.32917,-0.99721,0.50774,0.022937,0.32919,0.048567,-0.13,-0.4361,-0.12999,-0.15553,0.55872,-0.053519,-0.33405,-0.053482,0.0741,0.40568,0.12509,-1.0482,-0.41057,0.40564,0.71171,0.35467,0.09954,-0.6402,0.3037,0.12503,-0.58917,0.43117,0.63522,0.73725,-0.58914,-0.41058,1.1964,-0.46156,-0.30854,-0.43609,-0.13,-0.58908,0.3036,0.96677,0.2271,-0.23195,-0.28309,-0.41069,-0.15544,0.89027,0.48216,-0.23205,-0.43607,0.20162,-0.94622,0.81377,-1.89,-0.41057,0.50772,-0.079002,0.32912,-0.28305,0.20163,0.48221,-0.12999,-0.18106,-0.5635,0.074057,-0.002491,-0.25754,1.2219,1.2474,-1.6605,0.17612,-0.58911,-0.53825,-0.12996,0.43118,0.27811,-0.64014,0.1251,-0.027987,-0.48705,1.681,-0.38514,-0.64019,0.48226,0.17606,-0.92079,0.12503,-0.43607,-0.002448,-0.89523,1.426,-0.027956,-0.23203,-0.053476,0.94134,0.27813,0.2271,-0.18105,-1.6605,-0.38503,1.1198,-0.23207,-0.078972,-0.7422,-1.0482,1.6044,-0.002577,1.0179,-0.51263,-0.48716,-0.15548,1.0434,-0.81877,-0.18102,0.76277,-0.053488,-0.15551,0.38016,0.43115,-1.3289,1.1453,0.50771,0.22716,-0.66565,0.074062,-0.002436,-1.1503,-0.38508,0.63525,-0.23202,0.94129,0.32914,0.023084,-0.56364,1.5025,-1.1758,-0.078977,-0.41056,-0.92072,0.099546,0.3801,0.17605,-0.15543,-0.028005,0.63515,-0.48707,-0.5636,-0.15546,-0.002436,0.68621,0.60958,-1.3543,0.27815,1.273,-0.053476,-0.66565,-0.58915,-0.20655,0.48214,-1.0993,-0.078953,-0.18101,1.2218,-0.86969,0.8648,-0.33407,0.048555,-0.027969,0.40565,-0.64012,-0.23196,-0.25756,-0.53807,-0.13004,-0.81873,1.9871,-0.002485,0.48219,-0.71666,-0.43609,-0.33407,-0.15549,0.73735,-0.1556,-0.10451,-0.12997,0.43119,-0.053476,-0.23205,-1.0993,1.681,1.0689,-0.58914,-0.33404,0.32915,-0.48708,0.074106,0.074044,0.12505,-0.81872,0.25263,-0.027956,0.074087,0.91578,-0.35957,0.25257,-0.33409,-0.71665,-0.5891,-0.20657,0.55867,-0.12999,-0.027938,0.40569,0.71176,0.09951,-0.61469,-0.61462,1.1454,1.8086,-1.5839,-1.6095,0.38006,0.22719,-0.66562,-0.05347,-0.053506,0.91583,-0.51265,0.71173,-0.1045,-0.28305,0.78833,0.048512,0.022986,-0.25751,-0.35954,0.074044,-0.48707,-0.66565,0.63516,0.99231,0.32913,-0.38508,0.53318,-1.2778,0.099515,0.048561,-0.71662,-0.18094,1.2984,0.022992,-0.35959,-0.20653,0.023041,0.78826,-0.69119,0.81379,0.099619,-0.89515,0.91568,-0.4871,-0.10443,-0.9972,-0.18103,0.38019,-0.71668,-0.61464,-0.25753,1.3239,-0.053439,0.15059,-0.64017,0.2526,-0.181,0.1506,-0.38507,1.1199,-0.30855,-0.28305,-0.4361,2.2422,-1.1758,-0.28303,-0.53814,0.30363,-0.25753,-0.25752,0.45668,0.048531,0.099559,-0.18105,-0.078953,0.048536,-0.078984,0.20163,0.048561,0.2526,-0.20652,-0.12996,-0.05347,-0.33415,0.7628,-0.053378,-1.0993,0.27811,1.681,-1.4819,-1.6859,1.0177,1.5534,-0.97169,-0.10456,0.1251,-0.92071,0.32915,-0.13,0.074057,-0.079002,0.68624,0.73725,-0.41058,-0.35959,1.1454,-0.23203,-0.28304,-0.38506,-1.2013,0.25261,0.099552,-0.23199,0.20164,-0.92076,2.2676,-0.33399,-1.3034,0.12502,0.50767,-0.0535,0.023035,-0.79319,0.48214,-0.2065,-0.20656,-0.13002,0.63521,-0.41062,0.66074,-0.18104,-0.79323,0.27808,0.63523,-0.002448,-1.0738,0.68624,-0.15551,-0.25749,-0.18108,-0.53819,0.3801,-0.25751,-0.25746,0.38019,-0.71666,0.71177,0.023047,-0.35962,0.99232,-0.56364,-1.1503,0.76271,0.35458,0.12512,-0.28305,1.0434,-1.1248,0.074033,-0.25756,-0.3851,-0.56366,0.2526,0.99234,0.17609,0.074062,-0.30855,-0.66565,0.86483,-0.81871,0.2271,-0.64018,-0.56367,-0.028005,-0.028005,0.99236,1.2474,1.426,-0.15551,-0.71666,-0.41059,0.12506,-0.053513,-0.48713,-0.078984,0.074087,-0.64007,0.55864,0.48208,-0.30852,-0.078953,0.40573,-0.38503,-1.0993,2.1401,-0.18104,-0.61463,0.32915,-0.28303,-0.66566,-0.30857,0.83929,0.32913,-1.1503,-0.027987,1.7321,-0.10449,-0.33409,-0.48703,0.099546,-0.53813,-0.002472,-0.25756,1.783,-0.48711,-0.61465,-0.58916,0.074044,0.43117,0.3036,-0.18105,-0.25757,-0.15546,0.023035,0.12506,0.63523,0.9158,-0.15557,-0.69117,0.048634,-0.41058,0.63508,-0.38504,0.02301,-0.20657,-0.25754,1.6045,-1.3033,0.91583,0.50768,0.25264,-0.1045,-0.23206,-0.79322,0.45679,-0.61465,-0.13,-0.15548,0.22701,0.50768,-0.38509,-0.18103,-0.23204,0.32913,-0.56365,0.53318,0.074033,0.074044,1.0433,0.30361,-0.23207,-0.079026,0.1506,-0.15546,-0.69116,-0.30856,-0.51261,0.45669,-0.64017,0.68622,0.22709,0.32917,-0.028036,0.45659,0.09965,-0.66564,0.32913,-0.15549,0.1506,-0.12997,0.023047,-0.12999,0.43117,-0.30855,1.6045,-1.0993,-0.58913,-0.41058,-1.6094,2.0637,-0.002491,-0.92073,-0.97175,1.9361,-0.51262,-0.8187,-0.64014,0.60969,-0.33406,1.528,-0.58912,0.66064,-0.4616,-0.84411,-0.35954,-0.002443,0.023059,0.22711,-0.13001,1.3749,-0.51262,-0.053495,-0.51262,-0.66569,-0.12998,1.5535,0.32912,-0.71666,-0.56356,0.2525,-0.43618,0.023047,0.0741,-0.41054,-0.46162,1.2729,-0.35956,-0.79318,-0.18099,-0.4361,0.43112,-0.002448,0.048531,0.15055,0.35462,0.22707,-0.23207,-1.2524,1.1199,-0.13003,0.40565,-0.7932,-0.28301,1.9871,-0.4616,-0.18101,-0.28305,0.099479,0.55872,-0.69119,0.15059,-0.56361,0.60974,-0.58911,-0.13007,-0.002516,0.78826,-0.28303,-0.97179,0.048512,1.2984,0.35463,-0.4106,-0.079002,0.2526,0.15058,-0.07899,-0.41058,-0.53814,0.2526,0.96683,-0.8442,-0.18106,0.099552,-0.58913,-0.41055,1.0178,0.07402,-0.15545,-0.5636,0.22712,0.023065,-0.76772,0.099577,0.73727,0.43119,-0.18101,-0.15551,0.04858,-0.12995,-0.84426,1.0943,-1.1758,0.43117,-0.35957,1.4005,-0.48708,-0.71664,-0.41054,0.074087,0.099546,-0.71671,-0.46162,0.20156,-0.43612,0.40566,1.2219,0.96681,-0.25755,-0.56364,1.1453,-1.0993,0.22708,-0.30855,-0.74211,0.50765,-0.33406,-0.38512,0.58422,-0.48704,-0.53824,1.7831,-0.25751,-0.66562,-1.2013,-0.13002,0.9668,-0.18101,-0.15551,0.55866,-0.079033,0.38012,0.27813,-0.4871,1.0433,0.15058,0.15056,-0.079008,-0.35961,-0.13002,-0.13002,0.074051,-1.9155,1.375,-0.002472,-1.1503,1.9362,0.35465,-0.74221,-0.38509,-0.02795,-0.15548,0.20153,0.40562,-0.46163,-0.41059,0.32915,0.66072,-0.41057,-0.23202,0.3036,-0.46161,-0.002461,-0.13002,0.94134,0.099564,-0.25756,-0.74221,0.074057,1.732,-0.66569,-1.0993,0.55869,0.15059,-0.5126,0.30362,0.023047,-0.002497,0.17606,0.48214,-0.18102,-0.56364,0.17611,0.8648,-0.35954,0.30369,-0.43618,-0.48716,-0.97174,0.66074,0.25263,0.074069,0.66075,-0.33407,1.2984,-0.64013,-0.61467,-0.25757,-0.20652,0.048561,-0.079008,0.73726,-0.99732,-0.97163,1.528,0.27808,-0.46156,-0.35957,-0.28305,-0.4106,0.12506,0.074057,-0.10449,0.78825,0.55869,-0.18101,-0.20646,-0.94627,0.3291,0.38016,1.0433,-0.4106,-0.97174,0.023059,0.45668,0.45667,-1.3799,1.2984,0.58422,-0.94622,-0.53807,0.227,0.099528,0.40569,-0.10448,-0.027938,-0.48703,-0.41059,0.91578,-0.46161,-1.1503,0.8393,0.71173,0.023054,-0.7422,0.45667,-1.0483,0.15054,-0.81861,-1.1503,1.6045,-0.078972,0.53317,0.099479,-0.25753,-0.46159,-0.64011,0.50769,0.40565,0.17606,-0.25756,-0.41058,-0.25754,-0.20653,0.50768,0.68625,-0.89522,1.324,-1.0993,0.91579,-0.64018,-0.13005,0.91579,-0.79312,-1.9921,0.86467,0.48219,0.27815,0.55869,0.30364,0.15059,-0.33405,-0.6146,-0.48711,1.0943,-0.30851,-0.027993,-0.38511,0.12509,0.22713,0.78825,-0.81876,-1.7625,0.89031,0.66076,-0.35958,-0.002461,-0.079002,-0.35959,0.023029,0.22707,0.20159,-0.15548,0.22716,0.12508,-0.18105,0.099595,-0.8187,0.73726,-0.23203,1.681,-1.3544,-0.97175,-0.89522,0.53319,-0.18102,-1.0228,1.1453,0.27809,0.3802,-0.64017,0.20144,-0.23198,-0.61462,0.43118,-0.35959,0.074051,-0.58918,1.426,0.048512,-0.3851,-0.56366,0.48219,0.35468,-1.7115,0.83927,0.68622,-0.97174,-0.028042,-0.002503,-0.69115,0.78829,0.99229,-0.18104,-1.0483,-0.43608,1.2729,-0.23204,-0.56364,-0.20655,1.2474,0.35461,0.17606,-0.4616,-0.69116,-0.30855,-0.53812,1.0178,1.0688,-0.38508,0.71174,-0.51267,-0.51257,-0.078947,-0.18101,0.30365,-0.12999,0.048531,0.048518,-0.61466,1.5025,0.38016,-0.51265,-0.30868,-1.5074,-0.35951,1.222,-0.51257,0.04858,0.048506,-0.053451,0.89027,0.27809,0.43116,-0.078972,-0.97175,-0.18105,-0.48713,0.30363,-0.13,0.76275,0.43115,-0.79324,0.15057,0.074051,-0.33409,0.048549,0.048561,0.71176,-0.28306,0.43112,-0.028018,0.15065,0.55875,-0.66567,0.09957,-0.76771,1.1964,-0.56365,-0.33406,-0.61465,0.58422,-0.48717,-0.66572,1.7066,-1.2268,-0.28303,-0.23202,-0.74216,-0.13,-0.25758,1.732,0.81384,-0.69121,-0.20663,-0.66565,0.40569,0.048555,1.0434,-0.053458,-0.71666,-1.1758,0.35467,-0.43607,0.4822,0.89029,-0.002454,-0.027969,-0.20653,-0.30857,-0.53814,-0.10449,-0.002479,1.2475,-0.79318,1.4769,-0.15546,-0.3086,0.55867,-0.13002,0.58417,-0.81871,-0.69115,-0.51262,-0.027987,-0.053482,0.35467,-0.61465,0.25258,0.15052,-0.18103,0.09957,0.50762,-0.58915,0.58424,0.43118,-0.18098,-0.15553,-0.89522,0.63527,-0.15562,0.17605,1.2984,-0.56359,-0.97173,-0.12998,0.023054,-0.7167,0.20157,0.17607,-0.25755,1.375,-0.23204,-0.33406,0.45667,-0.53814,-0.053464,0.25262,0.12509,-0.13,0.22712,-0.43611,0.35462,-1.2014,1.324,-0.48711,-0.74218,0.074026,0.48221,-0.97175,0.55859,-0.15551,1.2984,-0.18101,-0.51262,0.17612,-0.232,0.43121,0.27814,-0.12999,-0.20655,-0.33403,1.0945,-0.33421,-0.61468,1.0944,-0.20654,-0.56363,-0.33406,-0.02798,0.5332,-0.51262,0.32913,-0.053476,-0.078977,0.12505,0.50766,0.22713,-0.30851,-0.18103,-0.002479,0.17607,0.074026,-0.07899,0.17604,-0.43598,0.074093,-0.33407,-0.002448,-1.1758,-0.027993,1.9361,-0.48713,0.048536,-2.0176,0.40574,-0.23203,-0.079014,-0.18108,-0.1045,0.71166,-0.078953,-0.20653,0.048536,0.48215,0.074051,-0.05347,0.50769,-0.76771,0.78828,-0.94626,-0.23203,1.2729,-0.84422,0.89035,-0.74216,-0.41059,-0.027993,0.22717,-0.25752,0.48209,-0.002448,-0.28302,-0.25751,0.35465,0.074062,0.48219,0.023041,-0.33406,-0.10448,0.25259,-0.84425,0.8138,-0.46156,0.45661,-0.7676,-0.76765,-0.053519,-0.58922,0.27815,1.0688,0.40563,0.099595,0.45672,-0.66567,-0.30855,0.30365,-0.38506,0.15057,-0.002467,-0.15549,0.22706,-0.10452,0.53323,0.15058,-0.84422,0.71175,-0.64018,0.099534,-0.13004,0.83925,-0.10453,0.38011,0.074038,-0.89523,1.0179,-0.81869,-1.7115,0.89032,-0.13002,0.48219,0.074062,0.32913,-0.48707,-0.25749,0.023017,0.99229,0.73727,-0.002467,-0.30854,-0.64013,0.15044,-0.79321,0.7373,-0.99725,-0.43607,0.81382,-0.61463,0.30363,-0.5381,1.4769,-0.20655,-0.13,-1.7625,0.94137,-0.79319,-0.20649,0.55866,0.48213,0.48214,-0.53815,0.40568,0.40566,-0.43608,-0.053495,0.27809,-0.64014,1.0434,-0.5126,-0.5126,-0.28306,0.48213,-0.66567,-1.5839,0.53325,0.50766,-0.56371,2.9054,-0.61466,-0.053495,-0.81873,-0.48708,0.32908,-0.538,0.66072,-0.41061,-0.35959,0.43118,0.099583,0.27811,-0.33409,0.023023,0.15058,0.17608,0.15059,0.27814,-0.74214,-0.25753,-0.51263,-0.66564,2.2933,-0.53824,-1.5585,2.6247,-0.56359,-0.69115,-0.25749,-0.46154,-0.18098,0.074038,0.048536,-0.002461,0.30358,0.12504,0.20158,0.25264,-0.181,0.15059,0.38016,-0.18103,-0.079008,-0.23203,-0.10449,-0.2065,0.099559,-0.30856,1.2219,-2.5532,2.1912,-0.38506,-0.23202,-0.38514,-0.35957,-0.79322,1.528,-0.25753,0.22712,-0.002461,-0.33407,0.91583,0.32917,-0.53812,-0.43608,-0.38511,-0.64017,0.45667,0.074069,-0.18098,-0.28305,0.73727,-0.30854,-0.25756,-0.20653,0.66073,-0.74218,0.38016,-0.13005,-0.027944,-0.25751,-0.38519,1.5535,-0.23202,-0.10446,-0.84419,-0.002436,0.074093,0.50766,0.40568,-0.92074,0.12511,0.71167,0.27805,-0.92074,0.58428,-0.15545,-0.38512,-0.76764,0.17607,-0.10454,0.83925,0.58422,0.35465,-0.71671,-0.48715,-0.48712,1.6811,-0.23201,-0.53814,0.76277,-0.15548,-0.6912,0.048518,0.8393,0.50768,-0.30855,-0.002448,-0.94623,-0.58912,1.2219,-0.078996,-0.81871,-0.58913,0.5077,0.35464,-0.76771,0.40571,0.38017,-0.53813,0.12504,0.58426,0.17602,-0.71677,-0.43608,-0.46161,0.2016,0.53321,-0.79319,0.81381,1.2474,-0.92075,-0.56366,-0.53814,-0.027956,0.58422,0.15057,-0.51262,0.32913,0.45666,-0.89524,1.0689,-0.30856,-0.28311,-0.002448,0.68627,-0.38507,-0.41055,-0.69116,0.63523,-0.20653,-0.4361,1.579,-0.12998,-0.53812,-0.28304,-0.33409,0.048536,-0.79318,0.68625,-0.66564,0.66075,0.30373,-0.76771,-0.86971,1.0434,-0.76772,-0.51263,0.35458,1.2474,-0.18105,-0.18105,0.023029,-0.66564,-0.38499,-0.46162,1.2218,0.83926,0.2781,-1.3034,-0.76771,0.32913,-0.20655,0.89031,-0.181,0.048573,0.86478,-0.10452,-0.56365,0.30362,0.30365,-0.48711,0.074038,0.09954,-0.3851,0.76275,-0.25756,-0.078947,-0.30859,0.50768,-0.25748,-0.38505,-0.23204,-0.3086,0.048647,1.8851,-0.38511,-0.7422,-0.43613,-0.35956,0.58421,-0.027987,-0.13001,-0.41061,1.3495,-0.20651,-0.71673,-0.20656,0.91579,-1.0738,0.53317,-0.15553,0.73725,-0.41058,-0.5381,-0.99719,1.9105,-0.6147,-0.30851,-0.07899,0.30363,0.074038,-0.002472,-0.10455,-0.33407,-0.002374,0.55874,-0.23212,0.048525,0.32914,0.63523,-0.078996,-0.43602,-0.53811,-0.10449,0.15057,0.2526,0.68625,-0.92072,-0.30852,-0.10447,-0.079021,0.30361,0.02301,0.81381,-0.53812,-0.4361,0.2271,-0.18103,0.22709,-0.53816,0.55869,2.0637,-0.58915,-0.56361,-0.30854,-0.94623,-0.28308,1.8086,-1.4564,0.66075,-0.41059,0.2271,0.12509,-0.28303,-1.0993,0.89035,-0.02798,-0.35967,0.43115,0.22716,0.12497,-0.20658,-0.94619,0.60978,0.023029,0.30366,0.048567,-0.69115,-0.18105,0.20156,0.40563,-0.25756,0.78826,-0.46162
-0.15553,0.048549,0.20159,-0.027956,-0.002461,0.15057,-0.30856,-0.23202,0.60973,-0.002479,-0.13001,-0.41059,-0.23202,0.20161,-0.4616,1.2474,-0.23205,-0.053488,-0.25755,-0.30855,0.099564,0.30361,-0.10449,-0.002443,0.17608,0.12507,0.023029,-0.027993,-0.13,0.17607,-0.002472,-0.20651,-0.1555,0.023047,0.45667,-0.33406,-0.46162,-0.15553,0.12506,0.58421,-0.002472,0.023054,-0.027956,0.22712,0.1506,-0.25753,-0.10449,-0.1045,0.099564,0.40563,-0.43612,-0.53815,0.074038,-0.002461,0.023047,0.40566,0.2271,1.0434,-0.5126,-0.20653,-0.4361,0.35462,-0.18102,-0.56366,-0.027974,0.81379,-0.20651,-0.23204,-0.23204,-0.38509,0.27812,0.9413,-0.35959,-0.13002,0.074051,-0.078959,0.074062,-0.30856,0.30361,-0.38508,-0.15552,0.048561,-0.078977,-0.181,0.78827,0.048555,-0.28305,-0.35957,-0.23204,0.048531,-0.079002,-0.053482,-0.18103,0.35465,0.17609,-0.053476,-0.078966,-0.078972,-0.078972,0.2016,-0.13001,0.099564,0.023023,-0.20654,0.48217,0.023023,0.17609,-0.84422,-0.38507,0.20161,0.099577,0.81378,-0.7677,-0.61467,0.89031,0.48216,0.45666,-0.15553,-0.079002,-0.13002,-0.15553,-0.51262,0.09957,0.15056,-0.15553,0.09957,-0.002461,-0.078996,0.048549,0.2271,0.074051,0.048543,0.27814,-0.25753,-0.10449,-0.23202,-0.1555,-0.078977,0.48219,0.40566,-0.13002,0.074051,-0.18103,-0.079008,0.048536,0.30361,-0.002467,-0.053495,0.2781,0.45666,-0.43612,-0.66569,0.73725,-0.30858,0.81378,0.12507,-0.027993,-0.28306,-0.18104,-0.053482,0.074051,0.023029,0.32915,-0.12999,-0.15551,-0.10451,0.73724,-0.25756,-0.4616,0.38015,-0.35957,0.68625,0.023059,-0.30856,-0.35957,-0.18102,-0.20653,0.25259,0.35462,-0.0535,0.048549,0.25262,0.023047,-0.027956,0.074075,-0.002461,0.22711,0.27812,-0.1045,-0.4106,-0.25756,0.58419,-0.10452,-0.027987,-0.053488,-0.078984,0.17609,0.32913,0.38015,0.048549,-0.12999,-0.33406,-0.41058,0.099564,0.099583,0.12508,-0.69117,0.66073,0.2271,-0.15553,-0.25756,0.09954,-0.10452,-0.027987,0.023041,0.68625,-0.30856,-0.13001,0.1761,-0.10448,0.048555,-0.25753,-0.15551,0.023035,-0.002461,0.58421,-0.20655,-0.30855,-0.053482,0.25262,-0.1555,0.30364,-0.74218,0.66074,0.35464,0.12506,-0.56366,0.17607,-0.13001,-0.18102,-0.28305,-0.25753,0.048561,0.20159,-0.41058,0.38013,-0.18101,0.074081,0.30362,-0.027974,-0.07899,-0.053506,-0.56365,0.99234,-0.10449,-0.25752,-0.10449,-0.28306,0.2271,0.048549,-0.027962,0.48219,0.15057,-0.4106,-0.33409,0.25262,0.5332,-0.23202,-0.027962,-0.41059,-0.38509,0.048549,0.12507,-0.027956,-0.002461,0.71173,0.38013,-0.48711,-0.25753,0.38016,-0.053482,-0.41058,-0.0535,-0.43611,-0.23203,0.60974,0.22713,-0.027974,-0.027993,0.09954,0.099534,-0.002454,-0.10448,-0.053476,-0.078977,0.023029,-0.30856,0.25262,0.22711,-0.35956,0.25262,0.12507,-0.25754,-0.07899,-0.38508,-0.027993,-0.1045,-0.10449,0.15059,0.40565,0.50768,-0.38508,-0.51264,-0.18101,0.12508,0.12509,0.099564,-0.18103,0.074038,0.2526,0.81379,-0.43609,-0.18101,-0.002485,-0.20652,-0.66565,0.63523,-0.027987,0.40566,-0.48711,0.58422,-0.41059,-0.30857,0.074057,-0.05347,-0.027969,0.099559,0.074069,0.32912,-0.078984,-0.027969,-0.18103,0.45667,-0.10452,-0.002448,0.40567,-0.1045,-0.002485,-0.25753,-0.43609,-0.18103,0.048536,0.27812,0.40566,0.099552,-0.1045,0.099564,-0.25753,0.35464,-0.20653,-0.64017,0.53319,-0.15553,0.048536,0.58419,-0.30855,-0.56363,0.25264,0.09957,-0.053488,-0.13004,0.023047,0.12507,0.17609,-0.25754,-0.053476,-0.027974,-0.43612,1.3239,-0.18102,-0.1045,-0.20653,-0.027987,-0.56361,0.40568,-0.15551,0.30361,-0.15553,-0.027974,-0.078972,0.20161,-0.027974,0.099559,-0.053482,0.023029,-0.1045,-0.027993,0.30362,0.17609,0.20159,-0.18101,-0.053464,-0.25752,-0.25753,-0.181,0.17609,-0.10448,-0.053464,0.32913,-0.23201,-0.35956,-0.1555,0.023035,0.099564,-0.02798,0.20158,0.78827,-0.46159,-0.86971,0.35464,0.099534,0.43115,-0.38508,-0.25752,-0.23203,-0.078984,0.27812,0.12509,-0.078996,-0.15552,0.12505,-0.002479,0.023047,0.074062,-0.078972,-0.027969,-0.027974,0.074038,-0.078996,0.38016,-0.15553,0.023035,-0.10449,-0.027969,-0.35954,-0.23202,0.27812,0.12507,-0.18101,0.2526,0.32912,0.048531,0.5842,-0.053482,-1.0228,-0.28305,-0.25754,-0.20652,0.27813,-0.28304,0.63524,0.20159,0.63522,0.048549,0.12507,-0.41058,-0.15552,-0.002491,-0.10452,-0.078996,0.48216,-0.13002,-0.23204,-0.28305,-0.12999,0.12509,0.32914,-0.0535,0.048531,-0.20653,0.048561,0.023035,1.7065,-0.18104,-0.69118,-0.28305,-0.027962,0.35465,-0.053476,-0.002485,0.048531,-0.15552,-0.33404,-0.30855,0.17609,0.099577,0.15058,-0.13003,0.71175,-0.17668,0.15057,-0.35956,-0.23203,0.099564,0.45666,-0.4361,0.40567,-0.74218,0.12507,-0.51262,-0.23205,-0.002497,0.20159,0.60971,-0.002461,0.2271,-0.61464,0.048561,-0.23203,1.7321,0.58421,-1.2268,-0.66568,-0.23205,0.15056,0.2526,0.074057,-0.25756,-1.0228,1.2985,-0.43608,0.78829,0.60971,-0.94624,-0.30856,0.48219,-0.30853,-0.30851,-0.15557,0.50759,-0.35961,-0.002485,-0.86973,0.99237,-0.64015,2.4718,-0.25754,0.2526,-1.0483,-0.99727,0.55872,1.426,-1.1503,-0.81871,-0.20652,1.2219,-0.12994,-0.66564,0.17607,0.43112,-0.28306,-0.25757,-0.28305,-0.74212,0.91588,-0.05358,0.94126,0.30372,-0.30852,-0.56368,-0.92069,-0.92067,0.30359,0.9157,1.5279,-0.35942,-0.3596,-1.5074,-0.18106,1.6811,-0.74221,0.73728,0.71176,-0.20655,-0.002454,-0.10451,-1.0992,-0.46156,-0.25772,1.6299,0.32927,-1.4053,-1.5329,1.375,0.68622,0.27815,-0.078947,0.15059,0.17609,-0.41061,-0.002479,-0.66567,0.60973,-0.69119,-0.23205,-0.078947,1.3494,-1.1503,0.78819,0.17604,-1.2522,0.35461,0.60972,0.38016,-1.4053,0.048531,1.6555,0.15061,-1.3033,1.0687,-0.28311,-0.25753,0.074057,-0.69117,0.55872,-0.12999,-0.053488,-0.46159,0.94133,0.5332,0.91582,-0.002472,-0.79324,-0.7677,0.023065,-1.3033,1.6555,-0.23205,0.22707,0.78828,0.86481,-1.3289,-0.76767,-1.1248,0.50768,0.45672,0.53321,0.32916,0.71175,-0.86977,-1.1759,0.25263,0.81383,0.048641,0.27798,1.2728,-0.71666,-0.71663,-0.25753,-0.5126,-0.48705,0.3802,-0.97173,1.9871,-0.99726,-0.58919,1.6555,0.63519,-0.58919,-0.25757,-0.5636,0.78822,0.68613,-0.18103,-0.23199,-0.002443,0.048592,0.60974,0.12509,-0.027969,0.048543,-0.38508,0.074087,0.81379,-1.0483,-0.33406,0.94134,-0.41059,0.048567,-0.15551,0.25259,0.83927,-0.23204,-0.20654,0.2271,-0.28305,1.1709,-0.30856,-0.23204,-0.79304,-1.4564,1.4514,-0.20659,0.023005,0.40566,0.86478,-0.13002,-0.25753,-1.4819,-0.84421,1.4515,-0.38508,1.2474,-0.61465,0.48217,-0.10453,-0.13002,-0.23203,-0.94628,0.35465,-0.66569,1.9871,0.38016,-0.23201,-0.86972,-0.002497,0.074044,0.68616,0.22706,-1.89,-0.20649,0.91582,2.8034,-0.53814,-0.23204,-1.1248,-0.18103,0.15058,0.12505,-0.25757,-0.23206,0.12512,-0.002467,0.45668,-0.51261,0.023054,-0.18103,-0.18103,0.048536,1.7066,-1.3543,0.048525,-0.078984,-0.18103,-0.079008,1.1454,1.477,0.81378,-0.89523,-1.3544,-0.94626,-0.10451,0.76276,-0.10448,0.04858,-0.35954,0.25261,1.3494,-0.9973,0.83933,-1.686,0.96683,0.38016,-0.23207,0.96679,-1.2013,-1.7114,0.023078,0.099552,-0.027956,2.5227,0.17597,-1.1248,0.12512,-0.2065,0.074069,-0.10447,-0.15548,0.48217,-0.4872,0.20158,-0.30855,1.5025,-0.078984,-0.97172,0.023078,-1.3799,-0.028018,0.55871,-0.48711,0.30363,-0.58914,0.5332,1.8851,-0.84425,0.074062,0.12508,-0.74218,-0.53816,1.5535,-0.8187,0.73728,-0.002443,-0.07899,-0.002485,-0.51265,-0.078996,0.25266,-0.5126,1.0689,0.40558,-0.94627,-0.4106,-0.41058,0.76278,1.0689,-0.4106,-0.20652,-0.7676,1.0178,-0.94634,1.8341,-0.25751,-1.3033,-0.20652,0.074038,0.32911,0.55869,-0.30856,-0.30855,0.17609,-0.46162,-0.46161,0.91581,0.074087,-0.20655,0.45666,-0.25752,-0.79318,1.2984,-0.94627,0.17609,-0.28306,-0.23207,0.8903,-0.56365,-1.0737,-0.15551,-0.027987,0.63526,-0.38508,-0.41058,0.35463,1.1709,-0.56364,0.35466,-0.25757,1.2474,-1.4819,-0.25754,1.2474,-1.4309,-0.15554,0.27808,1.732,-0.18103,-0.76769,0.58424,-0.66565,0.0741,-0.18102,-0.15555,1.4769,-0.079014,-0.028018,-0.64014,-0.10446,0.66077,-0.053495,-0.25758,0.22707,-0.38508,1.0944,0.96681,-1.2268,0.58419,0.50774,-0.89532,0.22702,-0.48709,-0.15549,0.60972,0.25264,0.22715,-0.58914,0.20157,0.48218,0.023047,-0.23203,-0.28305,0.81378,-0.25756,-0.23205,0.43117,0.48217,-0.35956,-0.74216,0.3036,-0.6657,0.81376,-0.56365,1.2474,0.1506,0.32914,-0.53811,-0.10451,-0.43607,-1.4054,-1.1503,1.7575,0.60969,-0.48713,-0.23199,-0.078935,-0.13002,0.50766,-0.3851,0.6098,-0.33409,0.30363,0.71174,-1.4819,0.2781,0.89031,-0.74217,-0.58918,-0.053464,0.71175,0.40567,1.4004,-1.3288,-0.35958,-0.25754,-0.7932,0.4822,0.20161,-0.18103,1.5535,-0.76771,-0.13,-0.1555,0.25262,0.3547,-0.028018,-0.58918,0.81379,-1.5074,0.66074,-0.027998,-0.23205,0.099583,0.48219,-0.13004,-0.51265,1.0689,-0.99721,-0.84414,0.22708,0.20157,0.43115,-0.33404,0.40563,-0.079002,1.4259,-0.38509,-0.20651,-0.8442,1.1964,-1.7115,-0.53814,0.96683,-0.20652,0.66072,0.27812,0.25262,-0.23203,-0.12999,0.48214,0.12505,-0.56363,0.60977,-1.1248,-0.30861,-0.053476,-0.078972,0.81379,-0.79321,1.426,-0.7932,-0.79321,0.25259,0.7883,0.48218,-0.028023,-0.079014,-0.23204,0.40568,-0.0535,-0.25753,0.38017,-0.30856,0.15059,-0.41057,-0.43606,0.99226,-0.053562,-1.7624,2.1657,0.94133,-0.4871,-0.41058,-0.81871,-0.46158,-0.002443,-0.20654,0.32912,0.074062,-0.28305,0.099564,-0.053495,-0.18103,-0.20653,1.8851,1.1709,-0.10449,-1.1503,-0.7932,1.1709,0.58421,-1.5329,0.30366,-0.20656,-0.23205,-0.002472,-0.38511,-0.002448,0.27812,0.048525,0.074013,0.60969,0.15057,0.30368,-0.94625,-0.18099,1.4259,-0.027998,0.20167,-2.0431,1.2219,0.17606,0.4567,-1.533,0.27812,-0.6911,0.12498,1.4514,0.50774,-0.23199,-0.74215,-0.23201,-0.25753,-0.99727,1.8086,-0.1045,-0.56362,0.78825,0.2781,-0.71673,-0.74224,0.94141,-0.079021,-0.48714,-0.51267,1.1198,-0.30853,0.30359,-0.25754,-0.078935,0.89034,0.048573,-0.66566,-1.0738,-0.078996,1.0944,1.2474,-0.10449,-1.4564,-0.84423,1.579,-0.35959,-1.2269,0.15058,0.83927,-0.46159,-0.94623,0.12509,0.73725,-0.74218,1.3239,0.25262,-0.20652,-1.1758,0.2526,-0.1045,0.73726,0.71176,0.53318,-1.6605,1.1454,-0.58911,0.58423,-0.25756,-0.94627,-1.2779,-0.13002,0.91581,0.35465,1.4769,-0.74211,-0.20658,0.17607,0.43115,-0.46156,-0.30858,0.50769,0.50774,-0.18115,-0.10452,0.55877,-0.46159,-0.18103,-0.33405,-0.30856,0.25263,0.45668,0.60971,-0.76774,0.074057,0.30363,-0.12998,0.023029,-0.89525,0.023035,1.1454,0.38016,-0.10449,-0.02798,-0.33407,-0.25756,0.048629,0.048561,-0.74218,0.76278,-0.48713,0.81375,-0.053439,0.023078,-0.33409,-0.027993,0.20158,0.22709,-0.66567,-0.64017,0.074026,0.53318,-0.079002,-0.66566,2.0382,-0.078984,-0.84422,0.5332,-0.028011,-0.20652,-0.58911,-0.15551,-0.30855,-0.4361,1.579,0.45669,-0.46164,0.78826,-1.0737,0.25256,-0.1556,-0.027969,0.35467,0.20168,-0.41058,-0.46159,0.32913,1.2985,-0.13006,-0.56364,-0.46161,-0.71672,-0.28304,-0.35956,1.7066,0.53321,-0.027944,-1.7625,1.4004,-1.839,-0.12998,-0.12999,0.60974,-0.3086,0.45665,0.32913,0.048567,-0.64014,0.50768,-0.13,1.1454,-0.92074,-0.002479,0.63522,-0.94621,-0.30856,0.38015,0.48217,-0.35956,0.96684,0.35465,-1.0738,-0.41058,0.50772,0.43117,0.45664,-0.66567,0.60975,-0.41069,0.73723,0.048629,0.50765,-0.79319,-0.92068,0.83931,-0.23205,-0.13,-0.89526,1.0179,-0.18101,0.78823,0.78829,-1.3033,-0.027938,0.38016,-0.43609,-0.53812,-0.33408,-1.2013,2.6504,0.023035,-0.13001,-0.30856,-0.79325,0.81375,-0.71672,-0.58914,-0.89522,0.68622,-0.10452,1.7066,-0.99727,-0.66569,2.9565,-1.4564,-0.97177,-0.74218,-0.51263,1.2729,0.25261,-0.61465,-0.35956,0.76278,-0.13001,0.2526,-0.028005,-0.58914,-0.48711,0.27808,-1.2523,2.0382,0.68622,-0.61463,-0.56362,-0.35959,1.2984,-1.0483,0.63525,1.5025,-2.2982,0.32912,-0.38503,-0.232,0.63514,0.68619,-0.20649,0.32917,-0.20649,-0.027969,-0.28304,0.38018,-0.69122,-0.33401,-0.43612,1.0178,0.53315,0.27809,0.99234,-1.1503,-0.89521,-0.84418,-0.66565,1.0178,-0.28305,0.048585,0.15055,-0.10453,0.38011,0.78824,0.023059,0.58422,-0.002461,-0.12999,0.12509,-1.4309,0.9158,0.71176,-0.79318,-1.1503,-0.35959,-0.20657,-0.28306,1.0179,0.68627,-0.43611,-0.053476,0.30364,0.40565,-0.20656,-0.48715,0.023127,0.73726,-0.7422,-0.079033,-0.58907,-0.9972,3.8237,-1.3035,1.1964,-1.6605,-0.92078,-0.64015,-0.18103,0.2271,0.30363,0.43118,0.35464,-0.46161,0.12509,0.048573,1.1454,-0.20655,-0.05347,-0.74221,0.76277,-0.43609,-0.18102,-0.15553,-1.0483,1.3495,0.1506,-1.839,-0.25755,2.3187,0.71175,-0.20655,-0.46162,-0.66565,-0.33404,-0.79321,0.2781,0.20159,-0.15551,-0.30854,0.43119,-0.10451,1.4515,-0.53814,0.58421,-0.25751,-0.02795,-0.84425,-0.46157,-0.23204,-0.18106,0.17619,-0.15551,-0.002485,-0.3851,0.45667,0.32912,0.6352,-0.30854,-0.38505,-0.18101,1.477,-0.38512,-0.002418,-0.18106,-0.7422,-0.48709,-0.51257,-0.28311,1.0178,-0.13004,1.0944,-0.58918,-0.86973,0.27811,0.48218,-0.33407,-0.10452,0.48219,1.3494,-0.18101,-0.35957,-0.51261,-0.12998,-0.30857,-0.25754,1.0178,-0.15554,-0.4361,-0.5126,-0.89522,0.048543,0.30364,0.40566,0.53317,0.30362,-0.2065,-0.33407,-0.15551,1.2219,0.35465,-0.43611,-0.48713,-1.2013,0.63523,-0.9973,0.15059,-0.38508,0.55875,-0.12998,-0.0535,0.78823,-0.30856,-0.84414,1.681,-0.2577,0.66078,-0.71663,-0.35954,-0.027925,-0.25754,0.5587,-0.20652,-0.64017,-0.23207,-0.053458,1.0689,0.023047,-0.46164,0.048536,-0.053488,0.15056,-0.13002,1.8341,0.48215,-1.0993,-0.64018,1.3239,-0.69115,-0.38509,-0.38511,-0.38503,0.023047,0.48213,-0.79323,0.099552,0.63525,0.17605,-0.027962,0.43117,0.17609,-0.35957,-0.28301,-0.66563,0.25259,0.99235,1.1964,-0.61463,-1.4819,-1.0228,1.1964,0.25259,-0.053513,0.68622,-1.6095,0.48214,-0.43608,0.45667,0.17609,-0.053488,-0.10449,0.17611,-0.38505,0.023065,0.27812,0.17608,-0.13001,0.023017,0.12507,-1.635,0.35466,1.7066,0.48216,-0.13001,-0.15554,-0.28307,-0.23205,-0.84423,-0.69112,0.81382,0.96681,-0.13004,0.38014,1.3494,-0.81871,-0.078984,-1.5329,0.94131,-0.078984,-0.33405,-0.02798,-0.25754,-0.33406,-0.33406,1.3495,-0.7932,0.32912,-0.33408,1.3239,0.048549,-0.43611,-0.61467,0.2526,-0.58913,-0.23202,1.2474,-1.1248,1.273,-0.30855,-0.48709,-0.053525,-0.35957,-0.13,0.2781,-0.20656,-0.74221,0.40565,1.0689,0.94132,-0.18101,-1.6094,1.2474,-0.79319,-0.18101,-0.33401,-0.18106,0.20157,1.0178,0.48218,0.15056,-0.58913,-1.1503,0.7883,-1.0993,1.2729,1.0433,-1.635,0.45667,0.2526,0.09957,-0.20653,-0.1555,0.048525,-0.69117,0.17607,1.4005,0.048561,0.99232,-0.43609,-0.74217,-0.66565,-1.6605,0.45667,1.2984,0.83924,0.63518,-0.41052,-0.99722,-0.15553,0.15057,0.048555,0.3291,0.25259,-0.1045,-0.18103,0.12508,-0.23203,-1.3033,1.6045,-0.53812,-0.078996,0.81376,-0.33409,-0.30855,-0.02798,-0.20652,0.023029,-0.053476,-0.30854,0.76275,0.91577,0.45666,0.023047,-0.86972,-0.48712,0.38016,0.048555,-0.33405,-0.79319,1.6301,0.58419,-1.3799,-0.5381,0.50767,0.27811,0.20158,0.40564,-0.28306,0.07402,-1.1758,-0.15549,0.76283,-0.18103,1.8086,-0.99723,-0.23206,0.2526,0.53316,0.15057,-0.86971,-0.43609,0.099564,0.22713,-0.92073,0.32912,0.38014,-0.66564,0.96683,-0.28305,-0.33407,0.81379,-1.839,1.2729,-0.92072,-0.00251,2.1146,0.48223,-0.41061,-0.18105,-0.46164,-0.53812,-0.13,-0.81871,-0.15551,0.45668,-0.1045,0.27809,-0.002503,0.2271,-0.053458,-0.58913,2.1657,-0.64014,-0.61465,1.4514,-1.3799,-0.4616,0.074051,0.43113,-0.48711,-0.30855,-0.2065,0.22712,-0.69119,2.2167,-0.58918,-1.2779,1.3495,0.58421,-0.41058,-0.1555,-0.56362,-0.56362,0.17612,-0.53815,0.40564,0.45666,-0.25754,0.09957,-0.58914,1.1964,0.09957,-0.5381,-0.66564,0.15051,0.30358,-0.35958,0.099608,-0.53812,-0.35962,0.94133,-0.10451,-0.23205,0.86483,0.99235,0.17611,-0.078984,-0.48711,-0.51265,-0.74222,0.2781,-0.002467,0.25261,0.099564,0.27811,-0.15548,-0.92073,0.09954,0.53315,1.6555,-0.25754,0.20161,-1.3544,0.63524,1.0689,-0.97175,-1.635,1.4515,-0.9718,0.55877,-0.0535,-0.30857,0.1761,0.30364,-0.079026,0.023059,0.023023,0.099564,-0.30854,0.25262,0.25259,-0.33406,-0.25754,0.32914,0.48218,-0.66564,-0.41058,0.27812,-0.25753,-0.61463,0.27814,1.9871,-1.9156,0.96679,0.022992,-1.9156,0.048573,0.76275,0.73725,-0.66562,0.25262,0.58421,0.12507,-0.53815,-0.84422,0.074038,-0.56363,2.0382,-0.7422,-0.35968,0.32917,-0.35953,0.20162,-0.13012,0.48212,-0.46162,1.1454,0.30369,-0.28302,-1.737,-1.2013,0.55873,0.83923,0.227,0.45666,-0.43604,0.32916,-0.078984,-0.20649,0.20156,0.40564,-0.053476,-0.23199,0.023029,0.074033,-0.41061,-0.7167,0.58422,-0.28309,-0.4615,0.55871,0.55868,0.2781,-0.4361,-1.0228,1.0689,-0.66564,0.43111,2.0127,-1.6094,-1.2013,0.94133,-1.0993,-0.38509,1.63,-0.64017,-0.61468,1.6045,0.15052,-0.84425,-0.46162,0.048531,-0.38508,0.38018,-0.48713,-0.58916,0.96684,0.27811,0.074057,-0.15553,-0.79321,0.35465,-0.41058,-0.64007,0.4312,0.43106,-0.92067,-0.15546,0.78829,-0.20651,-0.35956,-0.1555,0.099559,1.2219,-1.5839,0.89029,0.66072,-0.66566,-0.25753,-0.41057,-0.1045,0.2271,0.50771,-0.33407,-0.69119,0.35463,0.023035,-0.053488,1.0434,-0.51257,0.68615,-0.61469,0.68622,-0.46159,1.4005,-0.4361,-0.56362,0.91577,-1.8134,-0.38509,0.12504,0.91578,-0.46159,-0.5891,0.50773,-0.18099,0.17607,-0.74218,0.074038,0.30362,-0.74221,1.2474,0.91579,-0.13004,-0.38508,-0.56361,-0.10454,-0.23205,-0.23201,0.15054,0.71173,0.81378,-0.41058,-0.15543,-0.23207,0.35454,-0.002472,-0.48706,0.45672,-0.41061,-0.3341,0.023035,0.3802,-0.2065,0.27812,-0.13001,-0.053495,-0.41057,-0.2576,0.099559,2.8544,-0.58917,-0.4871,-0.58911,-0.66566,-0.5126,-0.027925,0.38013,-0.46167,0.023054,-0.18097,-0.027962,0.9923,1.3239,-0.181,-0.05347,-0.84422,-0.7422,-1.4054,-0.92069,0.83925,1.4259,1.2984,-0.053525,0.17605,-0.4361,-0.86977,0.99237,-0.46159,0.074057,-0.51264,-0.20654,0.074013,0.099503,-0.30855,-0.20644,0.66062,-0.74232,1.7576,0.20165,0.32915,-0.58915,-0.61463,-0.23204,-0.9718,0.81376,0.38016,0.074075,-0.33405,0.30365,-0.41058,0.83925,-0.89527,-0.28304,1.1454,-0.12997,-0.028011,-1.1504,0.63524,-0.15551,0.63526,1.9617,-1.6859,-0.69118,-0.53815,0.50766,0.12504,-0.13004,-0.23206,1.1454,-0.10453,-0.76769,0.099588,0.22711,1.0434,-0.053495,-0.53812,-0.4616,0.40566,0.71173,-0.027962,0.074057,-1.4819,0.71179,0.32914,-0.48711,-1.0993,-0.028018,0.35462,0.5077,-0.33404,1.1709,-0.027974,-0.30854,-0.33409,0.71166,-0.58905,0.32912,0.023059,1.1454,-1.0738,1.1964,-0.92066,-0.30856,-0.28317,-0.05347,-1.4053,-0.15543,-0.002418,1.0179,0.55869,0.53322,-0.46162,-1.2013,1.579,-0.66567,0.38011,-0.25758,-0.1555,-0.23204,0.22711,-1.6095,2.5738,0.27814,0.94133,-0.99727,-0.89521,-0.15548,-1.2268,0.17607,0.38012,1.1199,-0.4871,0.81376,-0.33408,0.2526,0.2271,0.17607,0.50768,-0.15549,-0.71664,-0.20653,-0.079021,0.78822,0.22709,0.15058,0.40561,-1.7625,-0.15548,2.0127,-1.9665,0.17611,0.25267,-0.33415,0.15047,-0.53809,0.7373,0.074051,1.426,0.48221,-0.99723,-0.81868,-0.23202,0.12505,-0.89527,0.6097,0.60973,0.71176,0.074062,-0.79321,-1.4054,1.2729,-0.10452,-0.53815,1.2729,-0.3341,0.1506,-0.79324,-0.33407,-0.48699,0.27815,-0.23208,0.12504,1.3239,-0.53821,0.48217,-0.10445,-0.10445,-0.078972,-1.3289,0.96681,0.94132,-0.33409,-0.89522,0.023059,-0.053495,0.63524,0.35466,-0.71671,-0.53812,-0.86963,0.96675,-0.30857,0.02309,-0.02795,0.023047,0.71177,-0.28302,-0.25753,0.40575,-0.10454,1.4515,-1.4054,0.20159,-0.86971,-0.38504,-0.64014,1.4005,-0.25756,-0.51263,0.048561,-0.25754,0.43121,0.023047,-0.48708,-0.10452,-0.38506,-0.30858,0.30361,1.579,0.074038,0.27813,0.4057,-0.10447,-0.10448,-0.46158,-0.51262,-0.58916,-0.33407,1.528,-0.10453,-0.002497,-1.3288,-0.4106,0.9413,0.6607,-0.18106,0.074044,0.30365,-0.079008,0.35464,-0.8442,0.1251,1.5025,-0.43611,0.32914,0.099577,-0.76771,-0.38509,-0.35956,0.68622,-0.28302,0.17608,0.91569,-0.56365,-0.64013,1.7576,0.35465,-0.79318,-2.5277,0.99234,0.68624,-0.28308,0.023065,-0.86974,-0.30861,1.2219,-0.15548,-0.97171,1.8851,-0.48712,-0.20654,0.17611,0.074062,-0.35959,-0.10452,0.3036,-0.13001,-0.2065,-0.74217,0.22708,1.7066,-0.99726,0.60973,-0.58916,0.3291,0.60972,-0.46159,-0.53812,0.60972,-0.97174,0.76275,-0.7677,-0.51266,0.78827,-0.15551,-0.002436,-0.66565,1.2729,-1.4819,-0.30851,0.40565,-0.66569,0.50767,1.0689,-0.4871,-0.33407,-0.33405,-0.28305,-0.25761,0.48226,-0.30861,-0.053488,0.023059,-0.078959,-0.18103,1.477,-0.25753,-1.4309,-0.23204,1.6555,0.048487,-0.35948,0.15067,-0.89526,0.073965,0.94119,-0.61468,-0.15549,0.074093,-0.0535,-0.283,-0.002369,-1.0481,1.1198,1.4257,-0.89523,-0.002326,-0.76761,0.40569,0.71175,-0.51256,-0.48711,0.12499,-0.74219,-0.97183,2.5991,-1.0228,0.96693,-0.81865,-0.56358,-1.1248,0.86481,0.55872,0.20157,-0.23202,-0.079112,0.3036,-0.69112,0.074051,-0.33409,1.0689,0.048555,-0.25755,0.15055,-0.30846,0.048555,0.60971,-0.66568,1.0688,-0.64017,-1.3799,-0.078966,1.0689,0.58422,-0.92076,-0.38506,-0.053464,0.27809,-0.23203,1.2219,-0.15548,-0.71671,-0.2831,-0.33405,0.40566,1.2984,-0.84421,-0.20644,0.58417,-0.35961,0.15056,-0.99719,0.15053,0.5076,0.20162,-0.51261,-0.2574,-0.10455,0.50762,0.99238,-0.35959,-0.23191,0.20158,-0.35968,-0.20656,-0.2065,-0.7932,0.86481,0.35462,0.94131,0.20158,-0.28307,-0.51263,-0.33406,-0.61466,-0.20652,1.1199,0.32913,0.55872,0.04858,-0.76769,-0.35958,-1.4819,1.63,-0.38506,0.15059,-0.30853,-0.30856,-0.002443,-0.002381,-0.71662,1.6044,0.073953,-0.56361,-0.23205,-0.41062,0.3547,-0.66565,0.89026,0.35464,0.12509,-1.1758,-0.53812,-0.10451,0.94131,0.78825,-0.99726,0.68622,-0.86973,-0.41061,0.40569,-0.053476,0.83931,-0.56367,0.63523,0.63521,-0.43608,-0.56365,-0.8442,-0.58911,0.58425,-0.69118,0.58424,0.55861,-0.0535,-0.5891,0.89034,-0.53814,-0.56366,1.4259,-0.46164,-0.10448,0.71177,-0.74216,-0.9973,0.89031,-0.23205,-0.053421,-0.69115,0.6096,-0.1555,-0.002412,-0.74215,0.099564,0.60969,-0.002454,-0.30849,0.73723,0.12505,0.074087,0.22699,-0.23202,-0.027987,-0.15557,-0.25758,0.099595,-0.41054,-0.35953,0.27819,0.89033,0.099583,0.32914,-0.84427,-0.33413,-1.4309,0.40566,1.1199,-0.23201,0.17609,0.6097,-0.64018,-0.41058,-0.38505,0.2016,-0.002363,0.32909,1.4004,-1.2268,0.43117,-0.20653,0.94136,-0.00243
0.50769,-0.30855,-0.28304,-0.23202,-0.38507,-0.1555,0.048561,0.38017,0.25262,-0.002454,-0.05347,0.20162,-0.053464,-0.38506,0.17609,-0.05347,-0.053476,-0.027974,-0.1555,-0.13001,-0.079008,0.023023,0.22709,0.12505,-0.15553,-0.027987,0.074038,0.20157,-0.20652,-0.053476,0.074051,0.22711,-0.10452,-0.20654,-0.35959,-0.18104,-0.079008,0.5587,-0.053495,-0.002479,-0.1555,-0.23203,0.15057,-0.20653,-0.07899,-0.002467,0.09957,0.66074,-0.30855,-0.5126,0.074075,0.099583,-0.10448,-0.10449,-0.25753,-0.002472,0.048549,-0.027987,0.15057,0.40567,0.20161,0.023047,-0.30856,-0.30856,-0.28305,-0.027987,0.023023,-0.002485,0.2271,-0.002467,-0.078977,0.17609,0.099577,-0.10449,-0.027969,0.023035,0.023041,-0.079008,-0.10451,0.12508,0.32914,-0.28305,-0.20652,-0.15551,0.1506,-0.20652,-0.002461,0.35464,-0.1045,-0.28306,0.50767,0.32913,-0.25754,-0.28305,-0.15551,0.048567,0.048567,0.25263,-0.1555,-0.078977,-0.027974,-0.027962,-0.10449,-0.05347,0.2271,-0.053482,-0.0535,-0.053482,-0.23202,0.32915,0.023059,-0.18103,-0.20654,0.15056,-0.078984,-0.13,0.2271,0.38014,-0.1045,-0.078966,-0.30854,0.22712,-0.181,0.048561,0.66075,-0.18101,-0.07899,0.25262,-0.33405,-0.002443,0.53322,-0.28303,-0.25752,-0.181,-0.053482,0.15057,0.2526,0.12509,-0.48709,0.17609,0.15057,0.40565,0.023035,0.048543,-0.027974,-0.25753,-0.18101,0.12508,0.15059,-0.18103,-0.027993,0.023029,-0.027987,-0.002485,0.048536,-0.10449,-0.078996,-0.078996,-0.28305,-0.07899,0.48219,0.94131,-0.18104,-0.13002,-0.33409,-0.20655,-0.35957,-0.30858,0.17608,0.099546,-0.027993,0.2526,0.023023,0.2271,-0.002479,-0.13001,-0.13001,-0.15551,-0.15549,-0.10449,0.73728,-0.053476,-0.18101,-0.12999,-0.027969,-0.1045,-0.053488,-0.027993,0.048536,0.048549,-0.053482,0.09957,0.15058,0.40567,-0.28303,-0.20652,0.099583,0.023047,0.25262,-0.33405,-0.30855,-0.23202,-0.18101,0.55872,-0.10448,0.30364,-0.053464,-0.23202,-0.15549,0.048549,0.074057,-0.10449,0.074069,0.30364,-0.20651,-0.20652,0.27814,-0.15549,0.76278,-0.20652,-0.48712,-0.13001,-0.078984,0.023035,-0.002467,-0.28306,0.45666,0.2781,0.32912,0.048531,-0.13,-0.18102,-0.13001,-0.20653,-0.13001,0.2526,0.55869,-0.33409,-0.23204,-0.027969,0.048567,-0.078972,0.074044,0.15057,-0.10451,-0.13002,0.2781,0.15057,-0.35957,0.023035,0.048561,-0.078977,-0.027956,-0.1555,-0.027969,-0.027987,-0.002472,-0.10449,0.09954,0.048536,0.40565,-0.15551,-0.002454,-0.15549,-0.15551,-0.13003,0.38013,0.074038,0.2526,-0.053488,-0.25752,-0.002448,-0.053464,-0.027974,-0.25756,0.3036,0.53317,-0.053476,-0.15549,-0.33406,-0.07899,0.48216,0.38016,-0.25754,-0.25753,-0.23204,-0.10451,0.38013,-0.13002,0.048536,0.32914,-0.053482,-0.20653,-0.38508,-0.20652,0.15057,-0.002472,0.074057,0.048549,0.099564,-0.35956,0.023054,0.074075,-0.053464,0.074069,0.17609,-0.079002,0.20159,-0.15553,-0.13002,-0.20653,0.53318,0.048536,-0.15551,0.099559,0.32913,-0.20652,-0.181,-0.15551,-0.078984,0.20158,0.09957,0.023059,-0.027974,-0.002467,-0.0535,-0.027993,0.17607,0.023047,-0.07899,-0.053476,-0.18103,0.58421,0.12509,-0.41058,-0.58914,0.2271,0.048543,-0.079002,-0.25754,-0.1045,0.40566,-0.13,0.15058,-0.10449,0.35465,-0.35956,-0.23201,-0.46158,0.8393,-0.4871,-0.1555,-0.02795,0.099559,-0.25755,0.12507,-0.0535,0.048536,0.12506,-0.13002,-0.079002,0.30361,0.20158,-0.25756,-0.053506,-0.053495,0.40565,-0.10451,-0.002485,-0.23204,0.45666,-0.10448,-0.078977,0.099577,-0.078977,-0.002448,0.17611,0.15058,-0.13001,-0.20653,-0.13,0.20159,0.074051,-0.18102,-0.20653,0.30361,0.074038,0.32912,-0.38508,-0.41059,0.50768,0.023041,0.09957,0.15059,0.074069,-0.053464,-0.053476,-0.12998,0.25261,0.074062,-0.027969,0.17609,0.27812,-0.07899,-0.25754,-0.18101,-0.10449,-0.002454,0.048561,-0.027956,-0.053464,0.27812,-0.078972,-0.002461,-0.1555,-0.20652,-0.13,-0.053482,0.099552,0.023029,0.38013,-0.079002,-0.33407,0.15057,0.023035,-0.30857,-0.23203,-0.02798,-0.002454,-0.027969,0.20159,0.12509,-0.027956,-0.13,0.30364,-0.25753,-0.002454,0.17609,-0.05347,0.25263,-0.10448,-0.30854,-0.002443,-0.15549,0.40566,-0.23202,-0.079002,-0.20653,-0.38508,-0.002479,0.78826,0.15057,-0.053482,-0.181,-0.1555,-0.13001,0.048531,0.22708,-0.10448,0.023041,0.30361,-0.027993,-0.15551,-0.078984,-0.027974,-0.07899,0.099564,0.35464,-0.12998,0.12508,-0.079014,-0.25756,-0.15553,0.048536,-0.078984,-0.027974,0.2271,-0.027969,-0.13001,0.09957,0.30365,-0.10448,0.023047,-0.002472,-0.30856,0.023029,0.2781,-0.002485,-0.10449,0.20159,-0.18101,-0.18104,0.17607,0.35462,-0.10451,-0.027993,-0.13002,-0.0535,0.20157,0.1232,0.074057,-0.05347,0.023035,0.074051,0.074062,-0.027993,-0.079014,0.048536,0.09957,0.023047,-0.10448,0.023029,-0.10449,-0.15551,-0.02798,0.048536,0.074038,0.048561,-0.078972,0.35464,-0.13001,-0.30855,-0.027974,0.048549,-0.027969,-0.10449,-0.027962,0.12509,-0.07899,-0.4361,0.50767,-0.02798,-0.13002,0.94129,-0.28306,-0.69118,-0.43608,0.35456,0.94125,-0.56362,-0.6911,0.35461,0.25254,0.1506,0.023096,0.76281,-0.94624,-0.30854,0.20161,0.099608,-0.81867,-0.20652,1.324,2.038,-2.1195,-0.12996,0.43099,0.78807,-1.5582,-0.078874,-0.15545,0.91567,-1.252,-1.099,1.3492,1.1448,1.1963,-1.6602,-0.99707,-1.2267,1.9362,0.96682,-0.3596,-0.7932,-0.20654,-0.079021,1.3494,-0.15542,-0.69127,-0.23208,0.15054,-0.10443,0.68629,1.0433,-0.58905,0.12515,-1.0737,0.58421,-1.0993,-0.18103,-0.58925,0.27806,-1.2012,1.018,0.76254,0.76261,0.27809,-1.6858,0.43124,0.25265,1.9617,-0.41066,-0.69121,-1.6093,-1.9153,1.5021,1.4002,-0.74209,-1.4562,1.3749,0.15078,-0.18123,0.48218,1.0689,-1.0992,0.023084,0.15056,-0.15548,-0.97177,-0.61465,-0.385,0.12507,-0.20655,0.048512,-0.28307,0.9413,0.22707,0.43117,0.32916,0.074013,0.38012,-0.51262,0.27815,-0.64014,-0.027944,0.20159,-0.35957,0.074051,-0.33407,-0.002443,0.1251,0.40554,-0.20652,-0.15538,0.58417,-0.079088,-0.28303,2.1657,-0.94624,1.2219,-0.89526,-0.69113,-1.3289,1.3494,0.38013,-0.79322,0.30364,0.023059,0.023059,-0.18102,-0.94619,0.78824,0.94121,-0.48711,0.35467,0.53325,-0.79318,0.9668,-0.028005,0.099564,-0.94622,0.15057,-0.3596,0.048567,-0.79316,0.17623,0.22691,0.17594,-0.56361,-0.53808,1.0944,1.1454,-0.48711,-0.25756,-0.30855,-0.61465,-0.30855,-0.30847,0.17598,0.4567,-0.30856,0.48214,-0.5126,-0.79314,0.22708,-0.1555,0.7628,-0.35953,-0.028139,-0.58912,-0.25744,-0.89521,1.1709,-0.35961,-0.002546,0.30361,0.60971,-0.53815,0.30362,0.43117,-0.51258,-0.53807,0.099466,-0.28307,0.4312,-0.15552,-0.20653,0.63522,0.30361,-0.23203,0.68627,-0.81868,0.20159,-0.46164,0.17606,0.45664,-0.33406,-0.078977,-0.002412,-0.35954,0.38012,-0.38508,0.53323,0.22704,1.2219,-1.4053,0.94136,-0.61463,-0.027944,-0.20659,-0.38496,0.38007,0.048482,-1.2013,-0.48708,-0.30854,1.6045,1.4004,-0.79323,0.04858,-0.181,1.1709,-0.94622,0.45669,-0.027969,-0.64015,-0.53814,0.20161,0.20163,-0.7422,-0.4616,-0.02798,0.30362,0.20158,-0.20653,0.1506,0.7883,-0.002443,-0.027969,-0.1045,0.66074,-0.56361,0.099626,0.3291,0.63528,-0.53811,-0.74219,-0.61466,0.3801,-0.9462,-0.002485,-0.92072,-0.15545,0.32899,0.71166,0.12515,0.63524,1.0688,0.48221,-1.1503,-1.1757,2.0637,0.43115,0.45664,-0.86975,-0.89526,-0.84425,-0.25756,-0.86974,-0.002491,0.48219,0.35463,0.50769,0.15059,0.50768,0.048536,0.81378,-0.28305,-0.58912,-0.12998,0.83928,1.426,-0.46157,-0.61463,-0.92072,-0.28306,-0.20653,-0.51265,-0.23204,0.30368,1.9871,0.099559,-0.20653,0.15057,-0.41054,-0.30856,0.12504,0.58421,-0.38506,0.58421,0.89029,-0.61465,-1.0992,0.78822,0.20152,-0.38508,-0.69116,0.60974,-0.33401,0.89034,-0.23204,-0.13002,-0.46162,-0.43608,0.96681,-0.20655,-1.1504,1.528,0.99234,-1.0228,0.048549,-0.89525,-0.6147,-0.20656,-0.18102,-0.07899,0.30361,1.4004,0.15056,-0.10447,-0.51258,-0.13002,0.38016,0.22715,-0.053495,0.073959,-0.053451,-0.15552,0.50768,0.27811,-0.94626,0.048536,0.30361,-0.51263,0.20156,-0.46151,-0.25754,0.78826,0.15059,-0.10449,0.22709,0.048518,0.45666,-0.028005,-0.43608,-0.38505,-0.58913,1.9616,-0.3851,0.099552,-0.5381,-0.002467,-0.76768,0.32917,0.22709,0.048512,-0.002497,0.8392,-0.51266,0.43118,-0.86967,0.50774,-0.56363,1.3239,0.20161,-0.58911,-0.25765,-0.20661,-0.43606,0.0741,0.3547,-0.35956,0.15057,0.20159,0.023035,0.1761,0.023035,0.048549,-0.1045,-0.41061,1.2729,-0.41061,0.35462,-0.56365,-0.30854,-0.79322,1.4004,-0.48713,0.023054,0.22712,-0.41056,-0.20653,-0.1045,1.2984,-0.51265,-0.79321,1.0433,-0.46163,0.2016,0.40565,0.30367,0.86475,-0.53815,-0.28307,0.40561,-1.1758,-0.002387,1.4769,-0.9463,0.55866,-0.20653,-0.15549,0.27815,-0.002461,-0.56366,-0.13002,0.074038,-0.13005,1.477,-0.23203,-0.002467,-0.58914,-0.18106,-0.58916,0.17607,1.1198,0.81376,-0.94624,-0.84422,0.53325,-0.15547,-0.4616,0.60967,-0.46164,0.07402,-0.30855,-0.79316,1.7576,0.50769,-0.30855,-0.1045,-0.1045,0.32913,-1.2778,0.22715,0.38001,0.76269,0.023059,-0.58911,-0.23202,-0.33404,-0.30855,0.48219,-0.4871,-0.33404,2.3187,-0.02798,0.35462,-0.64017,-0.48711,-0.64015,-0.69115,-0.35957,1.1198,-0.027993,-0.20653,0.048543,0.45664,-0.053464,0.30358,0.099534,-0.053506,-0.25757,-0.10451,-1.6094,2.5738,-0.079039,-0.58911,-0.46159,-0.51263,-0.385,0.43115,-0.028018,0.073995,0.25259,0.32913,-0.12999,0.73729,-0.71665,0.099577,-1.2523,-0.30852,0.099461,1.1709,-0.46164,-0.078879,-0.76771,0.9923,-0.028011,0.38014,-0.20652,-0.69118,0.66075,-0.10448,-0.027956,0.30364,0.50771,-0.51263,-0.33404,-0.18101,-0.86973,-0.38513,2.7779,-1.2778,-0.1045,0.32913,-0.0535,-1.0483,-0.10449,0.20158,-0.53817,1.2984,0.50773,0.099577,-0.28306,-0.10452,-0.41056,-0.41057,-0.20652,0.63522,-0.13001,-0.41058,0.63521,-0.38509,-0.20654,0.25262,0.074044,-0.33409,0.63524,-0.28306,0.25265,-1.3288,0.96675,-0.41063,0.58421,-0.33408,-0.64018,1.1453,-0.027846,-0.89527,-0.61467,0.78828,0.20159,-0.002491,0.38016,0.048555,-0.89524,-0.25755,1.2729,-0.46161,-0.84418,1.324,-0.23207,-0.13002,0.60969,-0.58915,-0.3851,0.15057,0.15056,-0.053476,-0.1555,0.48219,-0.15551,-0.79322,1.528,0.76273,-1.2269,-0.66567,1.2219,1.0944,-0.13006,-0.84422,-0.3851,-0.23203,-0.64018,-0.20649,0.023005,1.6554,0.1506,-0.71666,-0.053458,-0.33406,0.30363,-0.13002,0.12504,-0.3086,0.12506,-0.38498,-0.79322,0.9923,0.32911,1.4005,0.074069,-1.6605,-0.25753,-0.53812,-0.1045,-0.02795,0.86482,-0.002443,-0.35953,0.30363,0.25263,-0.15553,0.53318,-1.0483,1.528,-0.8187,-0.15549,-0.25752,-0.25753,-0.20653,0.91583,1.7576,-1.3799,0.099583,-1.5584,1.3749,-0.38509,-0.12998,-0.43604,-0.078898,0.048518,0.048482,-0.23198,1.0178,-0.15553,0.38018,-0.74216,-0.002454,0.55874,-0.35954,0.38016,-0.20653,0.35461,0.15065,0.099552,-1.4564,1.1964,-0.41058,0.099564,-0.81866,-0.33404,-0.58912,0.55872,-1.0228,1.2729,1.1709,-0.23203,-0.053495,-0.4106,-0.69118,-0.7932,0.45669,0.86478,0.89029,-1.0228,-0.38506,1.0688,0.15059,-0.15554,-0.35961,-0.20653,0.048585,0.43114,-0.13001,0.09957,0.43117,-0.51257,-0.002485,-0.25753,0.2781,-0.38504,0.30366,-0.43615,-0.15557,-0.053446,0.35462,-0.30856,0.78827,-0.81871,-0.13,-0.078977,-0.79324,0.48215,1.0433,-0.94622,-0.56361,0.48219,0.45665,-0.079008,0.2271,-0.53815,-0.48712,1.0179,0.76277,0.25262,-1.2013,-0.1045,-0.13002,0.27816,-0.28303,1.1199,-0.48713,-0.51262,0.12509,-0.35957,0.20158,0.023059,0.55872,-0.38509,-0.20653,-0.18103,-0.51262,-0.027938,0.17607,0.278,-1.5073,0.91581,-0.07899,-0.10452,0.32913,-0.33409,0.22708,0.074026,-0.25754,0.45667,-0.053506,-0.18106,0.58422,-0.30856,-0.84422,-0.10452,-0.38509,0.58419,0.38014,0.7883,-0.20652,-0.74219,-0.58915,0.38013,0.32915,0.38018,-0.13001,-0.35962,-0.41061,0.71173,-0.23205,0.15059,0.96685,-0.20657,-0.20657,-0.2065,-0.02798,0.35464,0.3036,0.2016,-0.38512,0.12505,-0.15556,-0.10456,-0.56355,0.023054,0.074044,-0.69116,0.3803,1.3493,0.25248,-1.4819,1.2729,0.5587,-0.25752,-0.81868,0.023041,-0.89524,0.25259,0.68622,0.38014,-0.053464,-0.053495,0.099546,-0.10452,-0.33407,0.99234,0.63526,-1.3034,1.5025,-1.0993,0.12506,0.07413,-0.20653,0.73726,-1.1248,-0.97174,1.4005,1.426,-0.79326,-0.74219,0.32918,0.20161,-0.079002,0.023023,0.25257,-0.51265,1.5535,-1.2267,0.6607,-0.18103,-0.33409,0.32911,0.1506,-1.1503,2.0125,0.35459,-1.0737,-0.38505,-0.46159,-0.89522,1.6301,-0.12999,-0.46164,0.6352,0.20159,0.1761,-0.23202,-1.0483,0.30363,0.27811,0.30363,0.35464,-0.84419,-0.078984,0.35462,0.32912,-0.25754,0.38016,-0.20651,-0.46159,-0.35958,1.1454,-0.2065,-1.0738,-1.7115,2.3442,-0.13001,0.12501,0.27817,-0.79311,-0.20663,-0.079057,1.0689,0.15062,-0.15548,-0.23207,-0.28306,-0.51259,0.25264,-0.053495,0.023035,0.12507,0.53318,0.30361,-0.18099,-1.4819,0.40566,0.17608,-0.58915,0.71173,1.681,-0.30856,-1.0228,-0.41058,0.099564,-0.35957,-0.28305,-0.18099,0.71176,-0.33409,-0.28305,-0.002467,0.32911,0.048549,-0.30857,0.30371,0.68621,-0.86977,-0.002516,0.48221,-0.15553,-0.61459,-0.23197,0.78817,-0.20653,-0.58911,0.94136,-1.2523,-0.30855,-0.35962,0.76273,0.099564,0.20161,-1.2523,1.9616,0.048555,-0.10453,0.023023,-0.18099,0.27812,-0.8442,-0.48709,-0.5126,1.477,-0.13003,-0.64015,1.1198,0.30358,0.048555,-0.64015,-0.43611,-0.56361,-1.2523,0.66072,1.0434,0.022992,-0.23203,-0.053476,0.04858,-0.46159,-0.33409,0.58422,-0.181,-0.18103,0.55869,-0.97169,-0.23204,0.55861,0.50769,0.074081,-0.053482,-0.33404,-1.4819,2.2423,-0.46159,-0.48711,-0.86975,0.89026,0.60969,-0.15548,-1.0738,0.48219,0.35467,-0.13001,0.15057,0.40565,-0.18103,-0.1045,-0.53811,0.71174,-0.43608,0.45672,0.48216,0.43112,-1.4053,-0.76771,0.0485,0.2781,-0.23203,0.17608,-0.20653,-0.079014,0.78827,-0.1555,0.53319,0.43117,-1.1247,0.45659,-0.13004,0.048585,0.099608,-0.48709,-0.76767,1.2219,-0.18102,0.17605,-0.66569,-0.69116,0.35465,0.35459,0.09954,-0.43613,0.5587,0.35462,-0.25753,-0.13002,0.1251,0.48211,-0.69111,0.99229,0.048536,-0.079014,-0.18104,-0.28302,0.099564,-0.8698,0.73724,-0.053506,-0.10449,-0.53816,0.074038,-0.15551,-0.43607,0.81376,-0.15554,0.17604,0.55869,0.20161,-0.079002,-0.53821,-0.56358,0.022992,0.48208,-0.23201,-0.5126,0.71177,0.66077,-0.33404,0.20158,-0.58914,0.91583,-0.97177,0.38016,-0.10449,1.8596,-0.23204,-1.0993,-0.05347,-0.56365,0.78825,0.20157,-0.56363,-0.51258,-0.12999,0.76278,-0.05347,-0.053433,-0.30856,-0.25752,-0.84423,1.8086,0.68624,-0.30853,-0.51261,-0.97175,0.32912,-0.13005,0.25259,-0.86975,1.3749,0.86479,-0.81871,-0.66567,0.32915,-0.30856,-0.027969,-0.027993,-0.30857,0.60973,-0.20655,0.17609,-0.35961,0.2016,-0.66567,3.2372,-0.23203,-0.38519,-0.64016,-0.56363,-0.58916,-0.053495,1.1964,-0.56364,-0.23208,-0.81871,1.5789,-0.53809,-0.89526,0.8393,-0.002436,-0.79322,-0.13002,0.074044,1.0688,-0.46161,0.15057,-0.18102,-0.41058,-0.2065,-0.53812,0.81377,1.0178,0.20159,-0.58916,-0.4361,0.45666,-0.1045,0.15057,-0.51261,-0.38506,1.0689,-0.28298,-0.30858,-0.46162,1.5025,-0.48713,-0.30857,0.048585,0.32914,-1.8646,2.0127,-0.56361,0.58411,-0.079014,-0.02795,-0.38509,1.2985,0.40573,0.023035,-0.79322,-1.0993,0.20163,0.58422,-0.25754,0.43115,-0.30856,0.15054,-0.43604,0.099559,-0.48714,-0.71664,1.1709,1.2984,-1.2523,0.12503,0.43112,1.1709,-0.97173,-0.58916,-0.12998,0.48214,-0.20655,0.50768,-0.15552,-0.20652,-0.94625,1.0434,0.73725,0.78823,-0.53815,-0.79319,0.12502,-0.20651,-0.25746,1.1963,0.38012,-0.10441,-0.46156,-1.1758,0.32915,1.1454,-0.69118,0.45663,-0.94629,-0.33408,0.58422,-0.25754,0.68623,-0.71667,-0.69116,1.7831,-0.027956,-0.3341,-0.002436,-0.76771,0.58417,-0.078953,-0.15553,-1.0738,1.9106,-0.10451,-0.283,-0.51258,-0.61472,1.0178,-0.76772,0.20159,0.50767,-0.41058,0.68624,0.023072,-0.20652,-0.53814,0.099564,0.45666,-0.25755,-0.13001,0.50768,-0.12999,0.94133,-0.43607,-0.53803,0.073989,0.15049,-0.43608,-0.69116,-0.66563,2.3953,0.048512,-0.027987,-0.18098,-0.51259,-0.35958,-0.38509,-0.79319,1.579,0.12506,-0.10452,1.5535,-1.1248,-0.4361,-0.33407,0.27817,0.074044,1.2729,-0.3851,-0.84424,-0.48711,-0.64016,0.81378,-0.027956,1.3749,-0.53812,-0.76768,0.55872,0.25263,-0.079002,0.25257,-0.20649,-0.35953,0.60958,0.12507,-0.89519,-0.0535,0.96683,-0.33402,-0.00243,-0.1045,-0.30858,0.20157,1.0944,-0.71657,0.6607,-1.482,0.17607,-0.078996,-0.18102,0.12509,0.45663,0.66073,-0.027969,-0.5126,0.099588,-0.12998,0.074051,0.15058,0.63524,-0.33409,0.048476,0.32912,-0.078977,-0.51261,0.15059,-0.02798,-0.61463,0.099595,-0.35954,0.38016,0.94114,-0.23208,-0.56359,-0.07891,0.43117,-0.56362,0.023072,1.8341,-0.69111,0.35465,-0.35959,-0.66569,0.40566,-0.35961,-0.30857,0.43121,-0.027925,-0.35956,0.32917,-0.002454,-0.76769,-0.3851,1.2474,-1.8135,1.579,-1.0483,-0.25754,0.048512,1.0688,-0.48712,-0.18101,-0.23202,0.68627,-0.61463,-0.30858,-0.35959,0.38016,0.66075,-0.0535,-0.51262,0.35465,-0.41059,-0.02792,0.12505,0.12508,0.27809,-0.15553,-0.58908,-0.28307,-0.94624,1.375,0.074038,0.68624,-0.99722,-0.89522,1.0942,0.58421,-0.5636,-0.51262,0.73729,-0.61464,0.1506,-0.92075,1.5025,0.32913,0.35464,0.2526,-0.4361,-0.33408,-1.0738,-0.33408,0.22712,0.023084,-0.28305,0.20158,0.22708,-0.23205,-0.18102,1.1199,0.22711,-0.43606,1.7576,-0.64017,-0.4361,-1.2269,0.20163,1.2474,-0.027987,-0.51263,-0.23205,-0.38513,-0.69112,0.27811,0.5842,-0.56362,0.15054,-0.1555,1.0944,0.50762,0.30354,-0.51258,-0.5381,0.35464,-0.283,-0.66565,-0.38508,1.0434,0.63523,-0.13002,-0.4106,-0.53809,0.40566,-0.078972,-0.027974,-0.00251,-0.002485,-0.3086,0.9923,-0.41058,-0.12999,-0.25752,0.048585,-0.053464,0.2526,0.8648,-0.027956,-0.97168,-0.15553,-0.89527,0.99235,0.074062,-0.30858,0.43118,-0.51259,0.40565,0.27808,0.89029,0.35464,-0.4616,-0.56366,0.12509,-0.43607,-0.181,-0.002479,0.53324,-0.38506,-0.30864,1.0688,-0.181,-0.002412,-0.027938,-0.61466,-0.079014,0.53319,0.023035,-0.38507,0.30361,0.023047,-0.35956,0.83929,-0.76767,0.32915,1.6555,-1.4309,-0.20659,-0.56357,0.55869,-0.61465,-0.18103,-0.25756,1.3495,-0.33409,-0.4871,0.1251,-0.12999,-0.35959,0.48218,0.81374,-0.51259,-0.05347,0.12509,-0.4361,0.50765,0.96682,-1.1503,0.35463,-0.79321,0.27816,0.53306,-0.51263,-0.69113,0.22711,0.12508,0.22715,0.76277,0.12507,-0.61467,0.50768,-0.38507,0.074044,-0.53814,0.86483,-0.94622,-0.18101,0.048592,0.66068,0.099479,0.048561,-0.30854,-0.74217,0.30363,1.681,0.17611,-0.8697,0.20159,-0.4106,-0.76773,-0.79321,0.60973,-0.28306,0.25262,0.35465,0.40563,0.48219,-0.76771,-0.20655,0.53321,-0.43607,-0.02798,-0.25753,1.1964,0.53309,-0.53812,-0.99727,-0.41056,-1.0993,0.55869,1.1199,-0.23205,-0.18106,0.2527,0.25263,0.45662,-0.0535,0.35464,-0.30856,-0.20649,0.15057,-0.28308,-0.078996,0.023035,0.60974,-0.181,-0.15553,0.099613,0.023108,-0.66573,0.22708,-0.078923,0.8393,-0.8953,-0.30858,1.0178,1.9106,-1.2013,-0.4616,-1.1248,0.66077,-0.12992,0.12498,-0.002534,-0.89518,-0.13001,0.2526,0.17607,-0.7166,0.58428,0.43112,0.45663,0.3036,-0.079021,-0.53814,0.50769,1.1199,-0.66565,-0.51252,-0.38512,-0.56361,-0.41054,0.30359,0.45667,0.12509,-0.25754,-0.10447,-0.41057,-0.33412,-0.69116,1.2474,1.2219,-0.28305,-0.46165,-0.48713,0.12508,1.63,-0.58915,-1.1503,0.60974,-1.4564,-0.053451,0.53324,0.89031,-0.46172,0.27808,-0.8952,-1.0482,0.78827,-0.079002,0.20158,-0.58914,0.43115,-0.18103,1.3494,-0.79322,-0.15549,-0.078959,-0.053451,-0.86972,-0.23206,0.17605,0.45666,2.2678,-1.2523,0.22707,0.20161,-0.74217,-0.07899,1.1199,-0.76772,-0.027969,-0.46152,-0.79324,1.2474,0.53318,0.048487,-0.30858,-1.3033,-0.30842,0.176,1.2473,-0.56359,0.76277,-0.56365,0.73726,0.25261,-0.15551,-0.33407,0.048543,-1.1503,1.324,0.099497,0.48212,-0.58914,-0.35954,-0.41057,0.099546,0.81376,-0.18106,0.50769,-0.35957,-0.20651,-0.20652,-0.41058,-0.20652,0.76278,1.5025,-0.23201,-1.0227,-0.33405,0.074062,0.12509,-0.053476,-0.30856,-0.4616,0.40566,0.96679,-0.7422,-0.23204,0.81377,0.15059,0.55867,-1.2268,-0.28299,0.83912,1.1199,-1.4564,-0.74218,-0.71668,0.83929,-0.46161,0.53323,0.71165,-0.15557,0.35467,-0.46155,-0.053439,0.048561,0.83927,0.27813,-0.58911,-0.64015,-0.30857,0.074033,0.40565,1.2984,0.22708,-0.79318,-0.94619,-0.20653,0.5332,-0.79319,1.8341,-1.788,0.91582,0.048536,-0.25754,-0.51262,-0.41058,0.45666,0.2271,-0.3086,0.66072,-0.027993,0.074038,-0.30855,0.048585,0.15056,-0.002405,0.023108,0.048458,-1.0229,1.6811,-0.86971,0.32919,0.25262,-0.97171,-1.2014,1.5534,-0.58909,-0.20657,0.22707,0.35462,-0.20655,-0.15552,-0.12998,0.55872,-0.41058,1.1199,-0.30855,-0.15552,-0.027974,0.022986,-0.13002,-0.51259,1.273,-0.48705,-0.028036,0.94131,-0.38506,-0.81868,0.27813,-0.81871,-0.25753,-0.43612,2.1912,-1.0993,0.50766,-0.48714,0.40575,-0.2066,-0.23205,-0.53811,0.074062,0.76274,-0.99728,-0.53809,0.71176,0.76279,-0.12993,-0.10463,0.20153,-0.283,0.12507,0.099534,-0.61463,-1.5074,1.8851,-0.078996,-0.28305,-0.13,-0.41058,-0.00251,1.7065,-1.4819,-0.10449,-0.25755,-0.10453,1.1454,0.63531,0.12505,0.53316,-0.53812,-1.2778,-0.078996,0.15058,-0.51265,-1.2268,1.1709,1.2474,0.32914,-0.61468,0.12506,-0.25754,0.22708,0.27811,-0.58914,-0.23203,0.15055,-0.002503,1.477,-1.3543,0.074069,0.022943,0.32913,-0.71666,-0.41056,1.3239,0.99232,-0.027974,-0.76769,-0.71668,-0.43609,-0.64015,-0.078959,0.22712,1.3494,-0.053464,-0.43612,-0.38506,0.43116,-0.10452,-0.48711,0.91579,0.76277,-0.33406,-0.66564,-0.46161,0.81373,-0.74218,0.68635,0.17606,-0.86979,-0.38506,0.023035,0.27808,-0.002472,-0.002479,-0.053446,0.32913,0.074051,0.32914,-0.027969,-0.76769,1.9361,-1.5585,-0.15552,-0.58914,0.48216,0.15059,0.58421,-0.38511,0.35466,-0.15548,-0.53812,0.43108,-1.1248,0.45672,0.43117,-0.56364,0.66072,-0.33412,0.3291,0.074044,-0.10451,0.074062,1.2474,-0.25756,-0.51264,-0.64017,0.30356,0.074013,0.94134,-0.10444,0.20159,-0.81876,0.43112,0.27809,0.048536,-0.35957,-0.71666,-0.25756,-0.18101,0.66075,1.2984,-0.74219,0.35465,0.17606,0.3036,-1.0228,-0.56367,0.35459,0.40563,0.8393,-0.61462,-0.69119,0.048543,0.81384,-0.99735,0.53308,1.2729,-0.64013,-0.078996,-0.18101,-0.027969,0.45669,-0.38509,0.20158,-0.61467,-0.3341,-0.94611,0.68626,1.6045,-0.5892,-0.51264,1.0689,-1.4564,-0.33404,-0.28305,1.1964,-0.079002,-0.7167,0.048525,-0.23201,0.81378,0.45667,-0.6911,-0.74216,0.63514,-0.20658,0.27812,-0.10451,0.40568,-0.5636,-0.35964,0.12514
0.58422,-0.43608,-0.23203,-0.20653,-0.002472,0.074038,-0.25753,0.15059,0.099564,0.074051,0.2271,-0.002472,-0.25754,-0.053476,-0.002472,0.20159,-0.28303,-0.20652,0.023041,0.12507,0.25259,0.27811,-0.35956,-0.12999,-0.002461,0.099559,-0.18101,-0.002472,0.023023,-0.15553,-0.002479,0.20158,0.38014,0.023041,-0.15551,-0.18102,-0.13,-0.20653,0.023023,-0.13001,-0.002461,-0.002472,0.023041,-0.23204,0.53318,-0.23203,-0.15553,-0.28305,-0.41058,0.35465,0.66072,-0.002485,0.023047,-0.41059,-0.25753,-0.15549,-0.1045,0.023041,0.12507,0.15057,0.12505,0.074057,0.30363,0.27812,-0.078977,0.048561,-0.38506,-0.10448,-0.027987,0.17607,-0.38509,-0.28305,-0.15551,0.27812,0.2271,-0.07899,0.023035,-0.027962,-0.15551,-0.002443,-0.078972,0.1761,-0.10447,-0.181,0.25263,0.27813,0.2271,-0.1045,-0.28306,-0.20654,-0.25754,0.023054,0.074062,-0.12999,-0.027962,0.48219,0.048543,0.074069,-0.002467,0.023047,-0.13002,0.023029,-0.18103,-0.002479,-0.002472,-0.027993,0.048536,0.27809,-0.18102,0.12507,0.074057,-0.002443,-0.15549,-0.053476,0.074057,0.45666,-0.13002,-0.23204,-0.078977,0.30363,0.30363,-0.25756,-0.13002,-0.027993,-0.053476,-0.002461,-0.28303,0.20159,0.2526,-0.28308,0.20158,0.048531,0.22711,-0.10449,0.048549,-0.053488,-0.02798,0.023041,0.023059,-0.053464,-0.1555,-0.002472,0.15057,0.48217,-0.18105,-0.3596,-0.38508,0.45665,0.023023,0.17606,-0.18101,-0.25753,-0.20653,-0.027974,-0.078972,0.048561,-0.10448,-0.10449,0.023035,0.17606,0.25259,0.15056,-0.002461,-0.23204,0.023054,-0.027969,-0.027962,-0.079014,0.023017,-0.07899,-0.13,-0.078996,-0.0535,-0.0535,-0.053495,0.2781,0.22708,0.2526,-0.43612,0.023023,0.12506,-0.07899,-0.28304,-0.078984,0.023047,-0.15552,0.12505,0.94133,0.2526,-0.28303,-0.28304,-0.13001,-0.15549,-0.23204,0.023035,0.023041,0.074044,-0.002479,-0.079014,-0.053482,-0.1045,0.15059,-0.25753,0.40566,-0.13001,-0.002485,-0.13002,0.15056,-0.07899,0.074051,0.12507,0.12507,-0.0535,-0.078984,-0.053495,-0.079002,0.048531,-0.002479,0.074051,0.048549,-0.027969,-0.20653,-0.053476,0.35465,-0.20654,-0.15551,0.15059,-0.002467,0.023041,-0.053488,-0.13,-0.18101,-0.002485,0.66072,0.30361,-0.13,-0.23203,-0.18101,-0.15551,0.074057,0.099546,0.12505,0.32913,-0.10449,-0.10449,-0.078977,-0.18101,0.023059,-0.20651,0.25262,-0.10449,-0.1045,-0.20653,-0.13,-0.15553,-0.10451,0.53318,0.43115,-0.079008,-0.079008,-0.15553,0.73726,-0.18101,-0.18102,-0.181,0.32915,-0.12999,-0.078984,-0.002472,-0.053482,-0.002467,-0.002461,0.099559,-0.027969,-0.078984,-0.002467,-0.002467,0.12505,-0.053506,0.023023,-0.053488,0.023029,0.17609,-0.33406,0.20159,0.35465,-0.027969,-0.48712,-0.02798,0.12507,0.15058,-0.027956,0.12508,-0.15551,0.023035,0.074033,-0.1045,0.023054,-0.002461,0.023041,-0.13,-0.0535,0.40565,0.15057,-0.10452,-0.15552,0.099564,-0.20652,-0.15551,-0.027993,0.17607,0.023041,0.12508,0.048555,0.25261,-0.10447,-0.053458,-0.078977,0.099552,-0.027962,0.15058,0.12508,-0.1045,-0.15551,0.25262,-0.28305,0.32913,-0.53814,0.12507,0.5587,-0.30856,-0.027993,0.17607,-0.20653,-0.23204,0.099564,-0.1045,0.48218,-0.46162,0.40565,0.048555,-0.33407,-0.28305,-0.15552,-0.002443,0.048561,0.45669,-0.38508,-0.1555,-0.027962,0.15059,0.22709,0.30361,0.15057,-0.027969,-0.13,-0.053488,-0.15549,-0.33407,-0.053482,0.17607,-0.002479,-0.002479,0.048543,-0.002461,0.048536,-0.002461,0.048543,-0.002467,0.023047,-0.027969,-0.053488,-0.053476,-0.13001,-0.002472,-0.028005,0.2271,0.074038,0.074033,-0.13001,0.023035,0.099564,-0.002454,-0.002448,0.20161,-0.5126,0.48218,-0.027962,-1.0483,0.20158,-0.10449,0.2016,-0.13001,0.2016,0.15056,0.023029,-0.0535,-0.15552,0.09954,0.20158,0.48219,-0.07899,-0.35956,-0.30856,-0.30855,-0.078984,0.15057,0.38013,0.12508,-0.28306,-0.41057,-0.078972,0.074062,0.074057,-0.002454,-0.078966,-0.12999,-0.002467,0.074044,0.17607,0.048531,-0.002467,-0.23202,-0.12998,-0.053482,0.023029,0.074044,-0.002485,0.099546,0.074038,0.048543,0.25262,-0.20652,0.074062,-0.23203,-0.10448,-0.027962,0.15059,-0.027962,-0.18101,-0.25754,0.32914,-0.53812,0.81379,-0.13,0.17609,-0.28305,-0.3851,-0.13002,-0.053495,-0.02798,0.099552,0.099559,0.048555,-0.002467,0.15057,0.048543,0.15057,0.074069,-0.38506,0.66075,0.35465,-0.43609,-0.51261,-0.079002,0.048531,-0.05347,-0.1045,0.12507,0.074062,-0.02795,0.048555,-0.027969,-0.027969,-0.027987,-0.13002,0.074038,0.20157,-0.02798,-0.053482,-0.1045,0.12508,0.074057,-0.002448,-0.15551,-0.078977,-0.078966,0.023041,0.074062,-0.41059,-0.027987,0.20158,0.099552,-0.002461,-0.05347,0.048536,-0.07899,0.15056,0.25071,0.1487,0.32914,0.27814,-0.46159,-0.41058,-0.0535,-0.18101,-0.078977,0.60973,0.2271,-0.13002,-0.4871,-0.13,-0.078972,0.15058,-0.10451,-0.002479,-0.053495,0.074051,0.023041,0.15059,-0.002454,-0.027944,0.048561,-0.027962,-0.027974,0.048543,-0.13002,0.27811,-0.25754,0.53321,-0.28305,-0.20653,-0.23203,-0.10448,-0.12999,0.12508,0.09957,-0.002485,0.023023,0.023023,-0.002461,0.15059,-0.02798,0.12508,0.048536,-0.002467,0.20161,-0.18101,0.074044,-0.15551,-0.30855,-0.20654,-0.10449,-0.027956,-0.002448,0.15059,0.15059,-0.18101,-0.002461,-0.027962,-0.053464,-0.027969,-0.13,0.048531,0.048536,-0.079014,-0.053476,0.20161,0.048561,0.023041,-0.20652,-0.0535,-0.13001,0.048555,0.074069,-0.28303,-0.20653,0.2526,0.048549,0.38014,0.074075,-0.23203,-0.002467,0.074062,0.22712,-0.35958,0.45666,-0.1045,-0.38508,-0.30854,-0.28305,0.63521,0.32914,0.099577,-0.07899,-0.20653,-0.25753,-0.078977,-0.13001,-0.15553,0.22713,0.30363,0.09957,0.12505,-0.05347,-0.15551,-0.20654,-0.078996,-0.05347,-0.10449,-0.002454,-0.027987,0.023047,-0.027956,0.023035,0.023023,-0.23205,-0.002472,0.1761,-0.15551,-0.13002,0.66071,0.048549,-0.027969,0.023059,-0.43608,-0.20653,-0.07899,0.12505,0.074038,-0.20652,0.048549,0.074087,0.099577,0.023041,0.15056,0.12505,-0.0535,-0.12999,0.023041,0.17607,0.17608,-0.38508,0.048567,-0.078977,0.099564,-0.027987,0.048536,-0.20652,-0.20653,-0.23204,-0.079008,0.20159,-0.10449,0.96685,-0.1045,-0.20653,-0.18105,-0.18104,-0.3596,0.15059,0.60972,0.50769,-0.23202,-0.30855,-0.25755,-0.15552,-0.002472,0.099546,0.12508,-0.25752,-0.10448,0.074081,0.048543,-0.053482,0.048531,-0.15551,-0.1045,-0.002472,-0.13,0.25262,-0.05347,-0.078977,-0.053476,-0.10452,-0.002479,-0.23202,0.76277,-0.10451,-0.20655,-0.13001,0.099564,-0.25752,-0.12999,0.023047,0.023023,-0.053482,0.099559,0.12507,-0.002461,0.048561,0.023041,0.074057,-0.027974,-0.002485,0.048531,0.17607,-0.027969,-0.10449,0.12509,-0.15551,0.023047,0.17607,-0.53814,0.94131,-0.23202,-0.18102,-0.079021,0.09954,-0.13001,0.32914,0.074051,0.40565,0.20159,-0.61466,0.32915,0.048567,-0.61465,-0.58915,-0.28306,0.63523,-0.10449,0.91581,-0.30855,0.17609,-0.46161,-0.10449,-0.078996,0.27812,0.27811,-0.35959,-0.20652,0.17611,-0.25752,0.83931,-0.74217,-0.48713,0.099552,0.63521,0.40566,-1.2523,-1.0483,0.94131,0.32915,0.83927,0.8393,-1.9921,0.45667,-1.0228,0.048555,-0.69119,0.38017,0.60977,-0.10455,0.43106,-0.7167,0.83932,0.15059,-0.25747,0.20155,-0.38514,0.2526,-0.76763,1.4005,-1.6604,1.2984,-0.61465,-0.027969,0.55856,-0.74218,-0.64006,1.3238,0.17607,-1.3033,1.5025,-0.30854,0.76277,-2.2981,0.76282,0.099473,0.40561,0.073892,0.40558,0.3802,0.50773,-0.33391,-1.2013,0.68621,-0.76773,-0.99726,1.6046,0.73726,0.099546,-0.25761,-1.1758,0.32913,-0.48714,0.68624,-0.33405,0.27816,0.48214,1.3494,-1.6095,0.22708,-0.99724,2.8035,-0.027944,-0.74221,-1.0228,-0.64013,1.0178,0.15055,-0.079045,-0.48711,-0.18104,0.38014,0.048531,-0.35959,-0.10451,0.04861,0.2271,0.17609,0.20159,-0.53811,0.25261,-0.66568,0.50769,-0.25762,0.83925,-0.99723,0.32924,0.27812,-0.92078,-0.30856,0.43117,-0.66566,-0.41061,1.5535,-0.71667,-0.23199,1.0944,-1.1503,0.43115,0.074013,0.20152,-0.23198,0.15062,0.38013,1.8085,-0.99732,-0.38498,0.023072,-0.28303,-0.48705,0.09957,0.09957,-0.92077,1.4004,0.7117,-0.8187,-0.61465,1.2729,-0.66567,-0.078972,0.12507,0.32913,-0.53812,-0.76769,0.40564,0.40566,-0.25753,-0.10447,-0.33406,0.023047,0.7883,0.71174,-0.23207,-2.1706,2.8544,-0.79321,-0.053476,0.20164,-0.25751,-1.0228,0.81376,1.2219,-1.7624,-0.71657,1.4259,1.2983,-0.84422,-0.58907,-0.10438,0.63517,-1.2779,0.91583,-0.15549,-0.20654,0.074069,0.0741,-0.25751,0.81381,-0.12998,0.17609,-0.18103,0.074026,0.45669,-1.0482,0.35456,-0.12999,-0.25751,0.3546,0.43116,-0.7677,0.89029,-0.18102,0.68626,-0.89516,-0.0535,-0.53815,-0.35954,0.81379,-0.23202,0.89035,-0.38508,-0.23205,-0.46159,-1.1503,1.528,-0.35961,-0.23206,-0.10449,-0.41058,0.55873,-0.66564,0.96684,-0.053464,0.023096,0.58411,0.55861,-1.6094,-0.6401,0.17608,-0.46159,-0.38508,2.6759,0.32915,-0.28308,-0.97173,-0.76769,-0.23204,0.2781,-0.12999,0.17608,-0.028005,-0.92072,0.89034,0.3802,-0.58913,0.50757,-0.25756,-0.25751,-0.18096,1.375,-0.078996,0.2526,-0.92074,-0.89523,-0.43613,1.1199,-0.43609,-0.15543,0.20149,-0.30866,1.0434,0.38014,-0.385,-0.28303,-0.13,0.40566,0.35467,0.45666,-0.71671,0.17609,-1.6604,1.2729,-0.23204,-0.35956,-0.46161,0.074075,0.60973,-1.7625,2.4718,-0.18101,0.40568,0.58421,-0.6147,-1.7114,0.94135,-0.23209,-0.41061,1.2984,-0.18102,-0.33407,-0.30853,0.25262,-0.74218,0.2271,0.20158,0.17606,-0.18102,-0.84419,-0.3595,0.048592,-0.23213,2.7523,-0.25759,0.3802,-0.89531,-0.56367,0.12514,-0.66561,-0.38506,-0.7422,0.22709,1.2474,0.02301,-0.25756,0.27812,0.20159,-0.41063,0.76273,1.222,-0.61465,-1.1503,-0.53814,-0.13002,0.53318,-0.20653,0.60969,-0.76761,0.09957,-0.027944,0.074081,-0.61467,0.89029,0.074038,-0.76771,0.048536,-0.53814,-0.76768,0.32918,1.1199,0.17607,0.073971,0.96682,-0.92073,-0.23199,-0.43609,0.68624,-0.51263,-0.41062,-0.1555,-0.078972,0.53317,0.023145,-0.99723,0.32903,1.1198,-0.48708,1.4771,-1.7879,-0.028042,0.86475,0.30364,-0.002461,-1.3544,-2.1451,0.43114,1.2219,1.1709,0.099552,0.023029,-0.027974,-0.48709,-0.30854,-0.15548,0.40566,0.32913,-0.002461,-0.86971,-0.61464,0.91581,-0.18103,0.40566,-0.002491,-1.0993,2.0891,-0.81868,-0.94622,-0.61462,1.9616,-0.69125,-0.12995,0.66072,0.40565,0.22706,-0.15553,0.048634,-0.20657,0.25252,0.81379,-0.20652,-0.46159,0.96688,-0.002467,-0.56362,-0.71672,0.78822,-0.15553,-0.38507,-0.28305,-0.48711,-0.58916,0.099552,0.86478,-0.20653,-0.1045,-0.1045,0.78833,0.53319,-0.28305,-1.1758,0.099588,0.2271,0.023072,0.15059,-0.38511,-0.25744,0.099546,-0.13002,-0.92074,1.681,-0.56363,-1.3033,1.0689,0.227,1.6555,-0.92064,0.048567,-0.25758,-1.4309,1.0434,0.50769,-0.28306,-0.43607,-0.23201,0.27802,-0.15555,0.12509,-0.002491,-0.71658,0.074069,0.9158,-0.41061,-0.58918,1.1709,0.71173,0.43117,-0.20653,-1.2269,0.5587,-0.56368,-0.81871,0.023047,1.2219,1.4515,-1.0483,-0.69118,0.15059,-0.053476,0.17608,-0.53811,-0.23207,0.48216,-0.079008,0.22712,-0.23199,0.81378,-0.6147,0.38014,1.2729,-1.2268,1.0689,-0.99729,-0.7422,-0.56364,-0.10449,0.048525,0.17606,0.30366,-0.69115,1.4005,0.1506,0.15061,0.023023,-1.5074,-0.84422,-0.078996,0.38014,0.99239,-0.33421,0.83918,0.25279,-0.69118,0.074033,-0.38508,0.023047,-0.61465,-0.69116,-0.053415,0.55867,0.15053,-0.078996,1.1454,-0.078996,-0.30856,0.32911,-0.86975,-1.0993,1.6046,0.91581,-0.027956,-1.5074,-1.0483,1.3239,0.68626,0.55872,-0.41057,-0.078972,0.43113,-0.027962,-1.5074,1.5025,0.22706,-0.30859,0.5077,-0.71671,-0.23207,-0.18106,0.63521,-0.25756,-0.13002,-0.33404,1.1453,-0.027993,0.25263,-0.94623,1.681,-0.25753,0.50771,-0.23206,-0.23204,-0.35956,0.43117,-0.64015,-0.35957,0.38013,-0.15551,-0.92067,1.4003,-0.15555,-0.3595,0.22713,-0.35962,0.12507,0.17611,-0.4616,0.86476,0.048567,-0.35953,0.48218,-0.10456,1.0689,-0.35956,0.20159,-0.84422,-0.18104,-0.58913,0.53322,0.73725,-0.13005,-0.25751,-1.0483,0.78828,0.32913,-0.61466,1.4515,-0.38509,-0.84424,0.43118,-0.30854,-0.23208,0.58417,0.2016,-0.25752,-0.078953,-0.33405,-0.23205,0.60973,0.40566,-0.53815,0.023054,0.45669,-0.76763,-0.81875,0.20155,0.25259,0.99233,0.32918,-0.86967,-0.41068,0.99224,0.32915,-0.6911,-0.10447,-0.10451,1.4005,-0.56362,-1.0738,0.25258,1.7831,-0.74225,-0.23208,-0.30854,0.43117,0.2781,-0.07899,-0.002443,0.58421,0.17609,-1.1248,0.48219,-0.46159,-0.56361,0.22707,0.45666,0.27809,1.579,-0.33407,-0.7167,-0.76767,-0.35956,-0.10446,0.27805,0.15056,1.6811,0.17611,-0.20652,-0.33404,-0.76767,0.074069,-0.30858,0.60969,0.6607,-0.48713,-0.25758,-0.1045,-0.18099,0.76277,-0.30855,0.27814,-0.027969,-0.30856,-0.20652,0.20153,-0.56358,0.83926,-0.69115,-0.10445,-0.3086,-0.66569,0.86479,-0.53815,0.99233,0.30363,-0.69119,0.68623,-0.28304,-0.4361,-0.002479,-0.61461,-0.33407,0.15059,0.12505,-0.079008,0.9158,1.2984,-0.4361,-0.58917,-0.078972,1.426,-1.5584,-0.41061,-0.33407,0.38016,-0.30858,0.63525,-0.46164,-0.33411,-0.66561,0.38016,0.17612,-0.027938,0.048549,0.89018,0.22714,-0.35953,0.32912,-0.71668,-0.86972,0.53325,1.0689,-0.079057,0.099521,-0.18105,-0.30858,0.25262,0.20158,-0.23204,0.45667,-0.41058,0.58424,-0.61465,-0.23204,0.09954,-0.20652,0.55869,-0.64015,-0.43607,-0.12999,0.43115,0.6097,-0.56364,0.12505,1.5025,0.73728,-1.1248,-2.0941,1.477,-0.56366,1.6045,0.048536,-0.74217,-0.56362,-0.69118,0.83922,-0.02792,0.66075,0.25259,-0.51259,-0.02798,-0.25756,-0.10445,-0.76769,1.1198,-0.30858,-0.48702,0.43116,-0.41059,-0.71668,0.99234,-1.0738,1.5025,1.0944,-1.1248,-0.15549,0.3801,0.074038,-0.30853,-0.35959,0.76276,-0.58915,0.27811,-0.12999,-0.23207,0.86478,0.38014,-0.41058,0.17609,-0.61467,-0.25756,-0.079014,0.55869,0.17608,0.2526,0.6352,-0.25759,-0.38514,0.22719,-0.56367,-0.20658,0.1506,0.53322,-0.41058,-0.28305,-0.18103,0.63521,0.023041,-1.1247,0.45664,2.2422,-1.0993,-0.43608,0.048555,-0.48707,0.074087,-0.38508,-0.41061,-0.25756,-0.15542,0.7116,0.048451,-0.20648,1.0944,-0.56359,-0.41054,0.074075,-0.002485,0.27809,-0.28306,-0.97172,0.73726,0.4056,-0.79315,1.6555,-0.8187,-1.2523,1.681,0.94128,-0.74218,-0.10447,-0.66567,-0.18102,0.63521,0.40566,-0.61464,0.48218,-1.5074,0.32913,1.5024,0.074057,-0.20651,-1.0738,0.38015,0.2526,0.38016,-0.58914,0.50766,0.73728,-0.4106,-0.4361,-0.079002,0.074062,-0.10449,-0.41058,0.023059,0.76277,0.40566,0.12507,-0.92076,0.2271,-0.10451,-0.18102,0.78829,0.53323,-0.48713,-0.13004,0.35462,-0.38509,-1.6605,1.324,0.73728,-0.28305,-0.079014,-0.00251,-0.61457,-0.13001,0.66064,0.58416,-0.20652,-0.69107,0.15064,-0.86968,0.023047,0.58414,-0.64018,0.91576,0.17609,0.76275,-0.97173,-0.35957,0.2016,0.15059,-0.15553,0.2016,0.09957,0.55871,-0.18103,-0.86974,-0.28305,0.83927,0.20161,-0.71666,-0.30854,0.15057,0.48219,-0.4361,0.20158,0.27808,-0.053464,-0.1045,-0.28307,0.45669,0.25265,-0.51262,0.66075,-0.00251,-0.46154,-0.15554,0.68623,-0.35963,-0.15553,-0.28305,0.50769,-0.23202,-0.48698,0.17608,0.50758,0.7628,0.12511,-0.8187,0.20159,-0.56361,-0.51264,0.30359,1.0178,-0.43608,0.50769,-0.079008,0.12506,0.20159,-0.8442,-0.46162,0.50766,0.07402,0.45666,-0.18101,-0.69113,-0.028018,0.71173,1.2985,0.12509,-0.97176,-0.79321,-0.28306,0.17604,0.176,-0.94617,-0.66565,0.60974,0.71171,-0.41062,0.60969,0.25259,0.048531,-0.15553,0.76274,-0.48711,-0.053482,-1.4309,-0.46159,-0.027956,0.83933,0.73728,-0.15553,-0.4361,0.099577,-0.053495,-0.053506,-0.41064,-0.9462,0.96684,-0.41052,-0.027998,1.528,-0.71665,-1.5329,2.7269,-0.86975,-0.46162,-0.079008,-0.30856,1.375,0.074069,0.04858,-0.33409,0.3291,-1.5074,-0.86968,-0.002454,0.27812,1.2984,0.023005,-0.28304,0.099595,-0.46164,1.3494,-0.69118,-0.97176,-0.74216,0.96685,0.60977,-0.71668,0.048506,-0.69121,0.6607,-0.92074,1.1454,-0.13,-0.28307,-0.25754,-0.33407,1.0434,0.38016,-0.46161,0.35468,-1.2522,0.53313,0.20152,-1.0227,0.48223,0.43119,-0.86972,0.35466,-1.0228,1.3749,1.2984,-0.53814,-0.58913,-0.53812,0.12504,-0.4616,0.27812,0.22712,1.9871,-0.9973,-0.53816,0.3801,-0.51258,-0.053513,0.023127,-0.053482,1.1709,-0.92073,-1.0227,0.074033,1.4515,-0.64014,0.20156,0.022998,-0.15552,-0.74219,0.27812,0.38016,-0.56363,0.81381,-0.10449,-0.027969,0.15059,-0.33407,0.2271,0.83927,-0.38506,-1.1248,-0.51262,0.94131,-0.84423,0.32909,-0.23203,-0.20641,-0.13007,0.25254,-0.86967,-0.25754,0.35463,0.48218,0.5077,0.048512,-0.10443,-0.18097,0.78824,0.32912,-0.23201,0.17607,-0.13,-1.2779,0.76275,0.55869,-1.0483,-0.4361,0.50772,-0.53808,0.94128,-0.28305,0.43118,-0.66569,0.3291,-0.18104,-0.18105,-0.74219,0.20162,0.91581,-0.64017,-0.51264,0.50769,-0.28299,1.1199,0.43116,0.58419,-1.1503,0.68623,0.048549,-0.38507,0.20162,-0.92076,-0.66564,-0.28303,0.30363,-0.00243,-0.079008,1.1197,-0.28297,-0.053433,-1.0993,0.68626,-0.002472,0.27811,0.099546,-0.078984,-0.12999,-0.4106,0.60972,1.2984,-0.18105,0.15057,-0.92071,0.3291,1.0433,-1.1248,-0.56357,-0.15551,0.023023,-0.13003,-1.4054,2.4973,0.074075,-0.002436,-0.53814,-1.1503,0.6352,-0.25756,1.426,-0.7167,-0.30856,0.43116,-0.053519,-0.71668,0.32917,0.20159,-0.43609,-0.76769,0.89031,2.0382,-0.69118,-0.56366,-0.43612,0.71169,-0.56353,-0.25745,0.12498,-0.33412,-0.002423,0.66074,-0.078977,0.09957,-0.079039,1.2729,0.023029,-0.92076,-1.3798,0.17605,0.94127,0.60973,0.023059,-0.66564,-0.23203,0.45663,0.023029,1.426,-0.53813,-0.92072,-0.43606,-0.18099,0.22708,-0.46156,0.71173,1.2219,-0.053495,-0.20655,0.1761,-0.38513,-1.3798,0.023041,0.83928,0.48218,-0.41058,-0.3851,-0.58916,0.9158,0.27811,0.71174,-0.25756,-0.28307,-0.43609,0.32912,-0.56361,-0.2065,0.27811,1.6045,-0.30858,-0.25755,-0.3596,-0.25756,-0.2065,-0.61463,0.55867,-0.10447,0.3802,0.40568,-0.71671,0.32912,-0.38509,-0.48714,2.6758,-0.84423,-0.20651,0.074075,-0.30856,-0.7422,1.63,-0.76766,0.22711,-0.20654,0.32909,0.25257,0.17609,-0.69118,-0.027931,0.023047,0.1506,-0.053446,0.15054,-0.58921,-0.30855,2.0126,-0.181,0.048561,-0.43615,-0.64015,-0.15552,-0.002461,0.20157,0.099588,-0.10449,-0.15551,0.023035,0.12507,0.2271,1.477,-1.3543,0.45669,-0.02798,-1.1759,0.02301,0.38014,-0.181,0.43117,-0.15549,0.45666,-0.38505,-0.027956,0.4056,-1.1758,0.27812,-0.48711,0.89026,0.32914,-0.53803,0.25255,0.48203,-0.64019,0.2527,0.15064,-1.2268,-0.89522,2.0637,-0.58916,0.20159,-0.38514,0.022998,-0.53814,0.66077,0.48219,-0.079026,0.12507,0.94134,-0.84422,0.2016,-0.51263,-0.33407,0.023047,0.12507,0.048506,0.12505,-0.41058,0.30358,-0.28306,-0.079002,0.22708,0.66075,-0.25751,-0.23203,0.048555,0.023017,-0.33407,-1.1758,-0.1555,1.9106,0.60969,0.20157,-0.64017,0.55864,-0.99725,-1.1247,1.0688,0.15056,0.12517,-0.79316,0.15056,-0.053488,-0.078984,0.63523,-0.43607,-0.10453,0.38014,0.023041,0.12509,-0.43607,-0.6402,0.91577,0.66071,0.023054,-1.5329,0.58421,0.53319,0.53318,-1.3033,0.32915,-0.18101,-0.1045,-0.053476,0.17608,0.35459,1.1198,-0.487,-0.25757,-0.76773,-0.33408,0.99234,0.2781,0.53319,-0.38507,-0.4361,-0.23205,-0.43609,-0.43607,-1.0992,1.7831,0.35456,1.579,-0.053415,-1.0993,-0.58914,0.38016,0.58422,-0.58914,-0.43611,-0.15553,-0.18105,0.78825,0.048536,-0.13002,0.45664,-0.15556,0.78826,-0.71657,-0.25754,-0.79324,0.76276,0.48216,-0.28304,-0.10451,0.20161,-0.23204,0.20156,0.68621,-0.56361,-0.46157,-0.74223,3.5177,-0.84424,-0.69119,0.68627,-0.97176,0.12508,-0.28302,-0.30859,-0.23203,-0.10449,1.8086,-0.74217,-0.23202,0.25264,-0.079112,-0.71671,0.023078,0.43117,-0.283,0.20163,-0.30854,0.27813,0.048536,0.2781,-0.027987,-0.078984,-0.33405,0.40568,-0.002485,-0.28306,-0.002467,1.3239,0.20159,-0.30861,-0.81875,0.32912,-0.71657,0.45663,0.30364,-1.0738,0.099546,0.38014,0.7883,0.94132,-0.25756,-0.12997,-0.38508,-0.84423,-0.58915,0.048506,-0.28307,0.25259,-0.41058,2.5738,-1.2523,0.099546,-0.15551,0.2271,0.099521,0.45667,-1.2523,1.1453,-0.48717,0.63527,0.43117,-0.89522,-0.38505,-0.41059,-0.02798,-0.20657,-0.33405,0.96683,-0.181,-0.20652,0.50766,0.27822,-0.23204,0.023017,-0.079039,-0.46163,0.8393,-0.56365,0.48219,0.50767,-0.41051,-1.2523,1.7576,0.17612,-0.30858,-0.25757,-0.4616,-0.15554,0.83927,-0.10452,-0.61468,1.3494,-0.46161,-0.027974,-0.7167,0.32913,-0.30851,0.2015,0.20156,0.35471,-0.027938,-0.56362,-0.92076,0.91582,1.681,-1.0738,-0.84422,0.3291,0.40565,-0.23207,0.78827,-0.97164,0.40563,-0.48712,0.074038,-0.56366,1.0689,0.12509,-0.28306,-0.84421,-0.46161,1.4515,-0.4871,0.48217,-0.13002,-0.46163,0.1506,0.074051,-0.002485,0.12507,0.5332,-0.43613,0.3802,1.579,-0.79321,0.15057,0.38016,-0.76769,-0.74218,0.35462,-1.0993,1.2984,-0.56373,-0.28302,0.32918,-0.30857,-0.53812,0.5077,0.60974,-0.10451,-0.23207,-0.46157,0.60966,-0.13,-0.4106,-0.002461,0.91581,0.66075,-0.92073,-0.69115,0.86481,0.99232,-1.5074,-0.15554,-0.58911,0.3292,0.71171,-0.61472,0.45662,-0.18103,0.20159,0.17609,0.023017,-0.76772,0.78828,0.12505,0.45673,0.099546,0.30355,-0.10447,0.35465,-0.99718,-0.61463,0.099546,-0.56355,-0.15552,0.40566,0.94127,-0.053519,-0.38506,0.074081,-1.2779,0.2526,1.1964,0.12508,-0.53817,-0.18103,-0.35955,-0.15546,0.15057,-0.15553,-0.30856,1.732,-0.8187,0.15056,-0.18105,0.30361,-0.23203,0.35468,0.50768,0.2526,0.99234,-1.4054,-1.1248,-0.99726,1.6045,-0.58916,0.99233,0.35461,-1.0993,0.68624,-0.30857,-0.028042,-0.10443,0.94133,-0.41051,1.987,-0.51269,0.45675,-0.10447,-0.02798,-1.0482,0.17607,0.25259,0.048536,-0.20652,-1.3034,1.2474,-0.46157,-0.53812,0.30364,0.32912,-1.0738,0.81375,-0.71668,0.023059,0.30364,-1.5074,0.73726,-0.58916,0.83925,0.83926,-0.20653,0.60972,-0.4871,-0.81865,-0.61467,0.074057,-0.1045,0.023023,-0.20647,0.94131,0.60965,1.7067,-1.1504,-0.33408,-0.71665,-0.99726,0.89031,0.35464,0.76273,-0.53814,-0.078972,-1.0228,-0.10449,0.38016,-0.027969,-0.078977,0.048555,0.35464,0.048536,-0.30857,-0.002479,-0.18103,0.09957,-0.002454,0.60972,-0.28306,-0.30855,-0.20654,-0.25759,-1.1248,1.1709,1.6556,-0.8442,-0.33413,-0.43614,0.15062,-0.64013,1.0944,0.94129,-1.0993,-0.35956,0.55872,-0.027969,0.55864,-1.1757,-1.0993,1.4004,0.43108,-0.5891,0.50771,1.1964,-1.0738,0.074038,-0.28302,-0.5636,-0.3851,0.25261,-1.0228,0.83926,0.023035,0.30363,0.2016,-0.078959,-0.053495,0.86478,-0.10451,-0.3851,-0.92074,1.8596,0.4822,-0.97176,-0.078996,0.048531,-0.30855,-0.23205,-0.92073,-0.23202,0.48213,0.2271,-0.33406,0.99235,-0.12998,1.3239,-1.0483,-0.53809,0.17603,0.55863,0.073989,-0.66561,-0.76767,-0.079002,-0.053488,0.35464,1.1709
