0.02301,-0.13,0.099559,-0.027969,0.074062,0.17609,0.099583,-0.027974,-0.078996,-0.10449,0.17611,0.1761,0.17611,-0.027969,-0.30855,-0.10449,-0.10451,-0.0535,0.074057,-0.078984,-0.053476,0.12507,0.099577,0.17609,-0.13,0.20161,0.15058,-0.23205,-0.078996,-0.002479,-0.18101,-0.07899,0.023023,-0.078984,0.023047,0.048567,0.023041,0.048536,0.074051,-0.002479,-0.027956,-0.05347,-0.053482,0.22708,0.099577,-0.002461,-0.12999,-0.20653,0.048531,-0.02798,0.048549,-0.002448,-0.07899,-0.002479,-0.02798,0.023047,-0.053464,-0.002448,0.2271,-0.053513,-0.02798,0.32915,-0.027987,-0.078984,-0.181,0.048555,-0.027987,-0.002485,-0.10451,-0.10449,0.2271,0.12507,-0.002479,-0.13002,-0.15551,-0.10446,0.48218,-0.002485,-0.002461,-0.12999,-0.10451,-0.002485,-0.027993,-0.002461,0.12509,-0.078966,-0.078972,-0.07899,0.12505,-0.02798,0.27813,-0.1045,0.17607,-0.078984,-0.20652,-0.053464,-0.20653,0.048531,-0.053495,0.074057,0.048549,0.023054,-0.027974,0.023035,-0.002461,0.09957,-0.078972,-0.002467,0.074033,0.048531,-0.02798,0.048561,-0.078984,-0.15551,0.2271,0.27811,-0.18102,-0.12999,-0.02798,-0.28306,0.17606,0.048531,0.25262,0.15059,0.30365,0.048567,-0.25754,-0.23205,-0.20656,-0.028005,-0.02798,0.023059,-0.002454,0.074069,0.048555,-0.027974,0.15057,0.27811,-0.002454,0.023041,-0.18101,0.099552,-0.053488,-0.13,-0.15548,-0.078972,-0.078984,-0.1555,0.023054,0.074057,0.2526,-0.13001,-0.15553,-0.18102,0.023035,0.50769,0.25261,0.023035,-0.15553,-0.23204,-0.10449,-0.002467,0.20159,-0.027969,-0.078984,-0.053495,-0.079002,0.27811,0.32913,-0.002472,-0.25753,-0.027956,-0.1045,-0.13,-0.027969,0.2271,0.22708,-0.30858,-0.15554,-0.18103,0.81377,-0.10448,-0.20651,-0.053476,-0.053476,-0.18101,0.048531,0.074051,0.15058,-0.027962,-0.078977,0.074051,0.023041,0.12506,-0.002454,-0.07899,-0.181,0.17607,0.15056,0.048525,-0.027974,-0.18102,-0.027987,0.023035,0.099583,0.074075,0.074057,-0.25756,-0.02798,-0.053488,-0.10449,-0.053488,0.66072,0.023029,0.17608,0.15059,-0.25753,-0.20653,-0.13003,-0.053495,-0.10449,-0.05347,0.09957,-0.02795,-0.05347,0.15057,-0.002467,0.023035,-0.078984,0.15057,-0.053482,-0.002479,-0.078984,-0.002448,-0.002461,-0.027987,-0.053464,-0.002472,0.023023,-0.053495,-0.078977,0.048561,0.074057,0.023029,0.048561,-0.10448,-0.002448,-0.053482,-0.002491,0.20158,-0.13,0.2271,-0.13,-0.002472,-0.33407,0.17609,0.22712,-0.1555,-0.30855,-0.25756,-0.28305,-0.027974,-0.002461,0.2781,0.023035,0.12509,0.074075,0.023047,0.048543,-0.053495,0.048531,0.12505,-0.053476,-0.002461,0.023059,0.09957,-0.027969,-0.027993,-0.1045,-0.078984,-0.002454,0.099559,0.023029,-0.078984,0.12509,-0.10449,-0.28306,-0.20653,0.76278,0.35464,-0.4361,-0.28308,-0.25754,0.35465,0.30364,-0.078984,-0.027993,-0.13001,-0.1045,-0.027969,0.09957,0.2271,-0.078984,-0.078996,-0.027969,0.074075,-0.002454,-0.002461,-0.13002,-0.002491,0.048536,-0.02798,-0.053476,-0.10449,0.099559,0.17609,0.023047,-0.05347,-0.12999,-0.15554,0.2781,-0.079014,0.22712,0.15058,-0.23201,-0.10447,-0.23202,-0.053488,-0.002467,-0.002497,0.048531,0.22707,0.35464,0.048555,0.15059,-0.027969,-0.078972,-0.078977,-0.05347,-0.10449,0.1761,0.048561,-0.10447,0.12509,0.074075,-0.027969,-0.002467,-0.07899,-0.12999,-0.13,-0.027962,-0.002454,-0.027969,-0.027956,-0.1555,0.12508,-0.02798,0.63522,-0.30856,-0.18103,0.048549,-0.23205,-0.20655,-0.027969,-0.078984,-0.053464,0.048555,0.023035,0.074051,-0.0535,0.074038,0.2271,0.30363,-0.12999,-0.12999,-0.053476,-0.10452,-0.10451,0.048531,0.12507,0.09957,-0.15549,-0.13,-0.002467,-0.053488,0.12508,0.12509,-0.027956,-0.1045,-0.10452,-0.02798,-0.10449,-0.20651,-0.07899,-0.078996,0.66072,0.048543,0.2526,-0.1045,-0.28305,-0.15551,-0.20652,-0.28305,0.023029,0.55869,0.32915,0.074062,-0.13001,-0.23202,-0.18101,-0.027987,-0.027969,-0.10452,0.099546,-0.002454,0.023059,0.023059,-0.078972,0.023047,0.023023,-0.027998,-0.053476,-0.027969,0.09957,-0.12998,-0.12999,-0.12998,0.20159,0.3036,-0.028005,-0.25756,0.40565,-0.23202,-0.23202,0.074069,-0.23203,0.023029,-0.002479,-0.002472,0.17607,0.023047,0.12509,0.048561,-0.10451,-0.027969,0.074069,0.35467,-0.28305,-0.13002,-0.10452,-0.078996,-0.078977,-0.027956,0.099564,0.074057,-0.002467,-0.027974,0.20157,0.38013,0.15056,-0.25755,-0.28303,-0.15551,0.30361,-0.15551,0.1506,0.15059,-0.13002,0.023017,-0.078984,0.048543,-0.002467,0.023047,-0.027962,0.20163,-0.07899,-0.002461,-0.002472,0.074062,-0.002479,-0.002491,-0.078996,-0.12998,-0.027974,0.023054,-0.002467,0.023035,-0.10449,-0.027956,0.023029,0.25259,-0.002472,0.09957,-0.15549,-0.12999,-0.053482,0.023035,-0.027962,-0.053482,-0.13002,0.023017,0.099564,0.30364,0.099564,-0.078984,-0.28306,0.30363,-0.027969,0.15058,-0.30858,-0.28306,0.15059,0.15059,0.12505,-0.12999,-0.078966,-0.002467,0.099546,0.074044,-0.002472,-0.002461,0.15058,-0.002467,-0.10451,0.22712,-0.002461,-0.12999,-0.027974,-0.027987,-0.027998,0.023023,0.023035,0.074069,0.25262,0.20159,-0.078996,-0.10449,0.023041,-0.078972,-0.053476,-0.027974,-0.1045,0.09954,0.15057,0.2016,-0.13001,0.12509,-0.053464,-0.078972,-0.30856,-0.25755,0.09954,0.2526,0.20161,-0.027969,-0.23202,0.074069,-0.027987,-0.002485,0.02301,-0.078996,0.048549,0.09957,0.074057,0.074069,-0.027956,-0.027962,-0.053482,-0.1045,-0.053488,0.074051,0.048561,-0.13,-0.027962,-0.053476,-0.002472,-0.027993,-0.002485,-0.13001,-0.002472,0.048543,0.22711,-0.1045,-0.15551,0.12508,0.09957,0.27812,-0.18101,-0.23202,-0.13001,0.22708,-0.002479,0.20158,-0.18101,-0.13,-0.002461,-0.027962,-0.053464,0.17608,0.023035,0.048549,0.023047,0.023047,-0.002467,0.099564,0.048561,0.45668,-0.12999,-0.1555,-0.20654,-0.0535,-0.027993,-0.07899,-0.053476,-0.002454,-0.05347,0.048536,0.048549,0.048543,-0.027962,-0.002461,-0.002467,0.048549,0.074069,-0.078977,-0.13,-0.053495,-0.002491,-0.10452,-0.002491,0.09954,0.40565,0.17609,-0.12999,-0.12998,-0.078984,-0.07899,-0.079002,-0.027993,0.48216,-0.0535,0.023041,0.12507,0.17611,-0.12998,-0.12999,-0.13,-0.002485,-0.053482,0.12506,0.32913,-0.053464,-0.002472,-0.027969,-0.078984,-0.10449,-0.053482,-0.027993,0.048525,-0.078996,0.048543,0.048531,-0.053495,0.074044,-0.02798,-0.181,-0.078984,0.023029,0.32913,-0.053482,0.12507,0.38014,-0.053458,-0.20652,0.2016,0.17612,-0.28305,-0.10451,-0.20654,-0.30858,-0.23205,0.17608,0.38014,0.71176,-0.35954,-0.43606,0.27814,1.2219,-0.20654,-0.94627,0.38012,0.2526,-0.97176,-1.3544,1.0178,0.023078,-0.79319,-0.94627,1.4004,0.63517,-1.7626,1.5025,4.2574,-4.3387,-0.385,1.0689,1.0943,-2.7573,-1.2268,-0.99744,2.0635,0.40561,2.2677,-0.078855,-0.56356,-5.0275,3.2626,4.3848,-2.0941,-4.1348,4.0023,-0.56354,-3.0632,0.12507,8.415,-4.3644,1.8085,0.099357,-3.7522,5.4053,-8.1646,2.3699,-0.64027,-4.9768,1.5278,1.8086,1.7323,0.99259,-1.4054,1.5535,-0.25738,0.99258,-0.7423,-2.5283,4.2569,-1.074,-2.0938,-4.6954,0.50775,3.4154,5.3538,0.86452,0.02298,0.27839,-1.8896,-1.0991,-1.9154,-2.4258,4.7164,0.96674,-1.0739,1.3238,0.073953,-0.84429,-0.79311,-2.6297,-0.7166,0.63532,-0.002247,1.2731,0.45651,0.66075,-0.30843,-0.74226,1.4001,0.99198,0.40542,-0.25766,-0.69113,-0.20648,-1.8899,0.45688,1.6047,0.91586,0.91597,-2.1451,-0.74216,-2.3492,-0.4871,0.60962,0.50751,1.2983,-0.35964,1.7319,1.7831,-1.8642,-1.456,-0.63993,1.8338,0.12471,-0.028212,0.86473,-1.992,1.6045,2.6503,-0.94633,-1.3034,-1.0992,-2.0683,1.0436,-0.84413,1.3494,1.9105,0.45658,-2.1196,-1.1758,-0.48719,0.37998,0.30353,0.20151,0.30356,0.0741,0.20171,0.71184,0.09954,0.30359,-0.28308,0.27811,0.91587,1.0178,-0.079045,-1.7625,-1.5329,-1.5838,-0.027993,-0.053586,1.0943,0.12502,1.2474,1.375,-1.5072,-0.46146,0.15046,-2.2474,1.9359,1.8852,1.0435,-1.4564,-2.5276,-0.35967,0.38001,2.0892,0.30366,-0.13,-0.053568,0.60965,0.02309,-0.94612,0.60987,-0.89526,-1.1759,1.936,2.5228,-1.2522,-0.20651,-0.56364,-0.84422,-0.56372,0.94124,-0.25758,0.048512,1.1454,0.81381,-1.0481,-0.58896,-1.2012,0.35465,0.76267,-0.35974,1.1197,0.83916,0.35457,0.023023,-0.51257,-0.69111,-1.2267,-0.58896,0.48231,-0.48716,-0.10456,-0.51279,3.5175,-0.89523,-0.64003,-1.3541,-0.3595,0.20152,-0.61482,0.71158,1.5534,0.94118,-0.33407,-0.33386,-0.30846,-0.53818,-0.28301,0.22716,-0.76764,0.32906,0.78819,1.2729,-0.4106,-0.74212,-0.25743,-0.9462,-1.1758,3.2625,-1.7115,0.3546,-0.4362,-0.97183,-0.92076,1.0946,-0.2319,0.25244,1.4003,0.83919,-1.0738,-0.20645,-0.38505,-1.1248,2.0127,-0.76774,0.40566,0.074155,-0.66555,-1.8901,2.3696,2.089,0.32911,-0.43609,-0.02792,-0.48706,-1.1758,-1.5585,-0.86973,0.78832,1.2985,0.17611,1.0943,-1.3033,0.40565,-0.38511,-0.7167,0.1762,-0.38506,0.60962,0.30353,-1.0737,-0.23196,0.30366,0.94123,1.1198,0.22704,-0.20661,-0.20645,-1.992,-0.71663,0.17628,-0.51245,-0.10435,0.53306,0.022803,1.9869,0.32904,-0.69118,0.35468,0.86483,0.25267,-0.35952,-0.7931,-3.1143,0.38034,-0.43605,-0.13009,0.86466,0.048396,1.9105,-0.38508,-0.002443,-0.793,-0.66564,1.5535,0.76272,-0.58913,-0.4871,-0.64012,1.426,-0.46163,-1.0483,0.91593,-0.41063,-1.1759,2.0126,1.783,-0.76779,-1.3798,-0.43577,-1.1755,-1.4309,1.4513,0.35446,0.91567,0.55861,-0.18103,-0.41057,-1.0482,-0.61457,-0.43593,0.1253,0.048536,1.0178,-0.74231,-0.20665,1.3493,2.4462,1.3749,-0.6656,-1.1246,-1.9155,-0.74223,-0.64022,0.25257,0.9923,0.81375,-0.79319,1.9871,-0.76762,-0.86953,0.71185,-0.20652,0.227,1.4003,0.83909,-0.35962,-1.6603,-0.35937,-0.58905,0.30355,-1.5075,4.5889,-1.4308,-1.1248,0.7627,-0.28309,0.048518,0.76275,-0.5381,0.66079,0.35465,-2.9104,0.71177,-1.9154,3.3136,0.6098,-0.76772,0.048482,-0.41074,-0.64035,0.60958,-0.35951,-1.1757,1.3495,-0.283,-0.38513,0.35461,0.45666,0.86481,-0.89522,2.3442,-0.66565,-1.9919,-0.027864,-0.43604,-0.61462,0.50758,-0.028188,0.37996,0.048438,-0.81862,-0.23179,-0.53794,2.6758,2.4461,-0.2066,-2.1196,-1.9156,0.45666,0.60963,0.17609,-1.2012,2.1913,0.73732,-2.196,0.27806,0.073977,0.68612,-0.99737,-0.10457,-0.74221,3.3901,-1.2268,-0.84407,-0.10443,0.023017,0.91579,-0.71675,0.12504,0.73725,-1.0992,-0.10444,-0.078977,-0.99726,0.43117,-0.25759,2.9818,-1.2524,0.50769,-0.35956,-1.1249,-0.078947,-1.1757,0.048702,1.1709,0.20156,-0.33418,0.58405,1.0432,0.60969,0.22711,-0.30851,-1.3287,-1.0227,0.83928,-0.23213,0.63515,-0.35964,1.477,-0.89522,0.023035,0.91584,-0.69122,-0.3086,1.9872,0.074179,-0.35936,-0.5382,-0.48721,1.1452,-0.61469,-0.51251,-0.84409,0.17601,1.0433,0.68611,0.45653,-0.46162,0.099637,-0.41036,1.273,-0.10457,-0.66567,-1.3799,2.1403,-2.5276,-0.20659,0.45654,-1.431,0.83922,-0.79313,0.12523,0.40568,0.40566,-0.079021,0.50772,1.2474,-1.533,1.0688,-0.58916,0.20171,-1.4563,-0.079026,-0.053586,-0.028085,-0.30862,1.732,-1.1247,-0.10439,0.12506,2.2421,0.55867,-0.33405,-1.3544,-0.07899,0.32913,0.50774,-0.41051,-1.1247,-0.9462,-0.079045,0.48218,0.94123,0.78814,-0.46164,-0.487,0.55873,2.9819,-2.0686,-2.1195,-0.35959,1.0688,1.2729,-0.30863,0.60972,-1.3798,-0.4869,-1.2776,1.1963,-0.7423,0.17597,0.48206,2.6248,0.43112,-1.0737,-2.0939,-0.33405,-0.23203,1.477,0.48228,-0.43605,-0.86981,-0.58927,0.73722,1.6555,-0.43604,-0.63998,0.12501,-1.1249,0.17597,0.83926,-0.30863,-0.25755,0.074142,-1.1247,0.20171,0.1251,0.89026,-0.61467,0.12504,-0.23218,1.4513,0.99229,0.09965,-0.86953,-1.2777,-0.41063,0.60965,-0.2066,0.45666,-1.3289,-0.33409,0.35466,0.71178,2.2933,-0.97177,-1.1758,0.48224,-0.002472,0.25254,-1.0483,-0.41054,-0.51258,0.22705,0.6861,2.2167,-0.9462,-0.53804,0.12503,0.02295,-0.079093,0.91587,-0.94609,-1.3033,0.73726,-0.30857,-0.23201,-0.23201,1.4004,0.50763,-0.23205,0.35473,-1.3289,0.58422,-0.28306,-0.48714,-0.18102,0.20159,-0.86971,1.2984,-0.079002,-0.46159,0.94134,-0.99725,-0.81866,-1.0737,0.73733,-0.43618,3.0328,0.8136,0.125,-0.99725,-0.41041,-0.94597,-0.61471,0.9922,0.9667,0.3036,-0.9463,-2.5532,2.7779,0.68624,0.96688,-1.2268,-1.0228,-0.53815,0.22718,-1.3543,1.1199,-0.48703,-1.0228,1.2983,0.86466,0.71158,-0.41064,-0.76755,-0.12988,-1.2267,0.81373,-0.97188,1.5534,1.6299,-1.5585,-0.66565,0.99246,-0.027797,-1.7368,-0.38505,0.27799,-0.23212,1.0177,0.12505,-0.48711,-0.002448,-1.5329,2.0637,0.5843,-0.538,0.78833,0.83912,0.81368,-1.2523,-0.53802,-2.0941,-0.79326,1.6045,1.4516,-0.38503,0.63518,-1.5585,0.15056,2.9564,-2.3747,0.30366,0.94131,-0.7166,-0.20647,-0.027974,-0.66572,0.68619,0.048616,1.0945,-0.38506,0.53311,-0.79333,-0.38516,-0.69118,0.86481,-0.81871,-0.20646,-0.00232,-0.10446,0.6862,0.55862,0.66064,-0.69118,-0.8187,-0.334,2.2423,-1.0482,-0.10447,0.20151,-1.1759,-0.30858,-1.1503,-0.43605,0.81375,0.9413,1.9362,-0.20648,-0.028023,-0.76777,0.83928,-0.81866,-0.43592,-1.8643,1.528,-2.3237,1.834,0.55864,0.73719,-1.6605,0.96672,-0.53821,0.8393,-1.0992,0.099699,0.023103,-0.33404,-0.20653,0.48211,-0.23201,0.27817,-0.76771,1.1198,-0.43611,-0.002394,-1.0736,1.8852,-0.028121,0.78813,-2.1707,-1.1503,0.94133,-0.43606,1.4515,1.477,0.023059,-0.94606,1.0434,-2.2727,-0.48719,1.7065,0.91578,0.45666,-0.74218,-0.71668,-1.0483,-0.94623,1.2475,0.5843,-0.053537,-0.028047,-0.1301,0.76276,-0.69115,-0.12998,-0.10445,0.86483,-0.10456,-0.66569,-0.89519,-0.35957,2.7268,0.35453,0.50761,-1.1502,-0.94611,-0.18094,-0.71668,-0.43619,-0.48721,2.2677,0.15057,0.7628,-0.61462,0.099552,-0.94625,-1.3032,0.27823,-0.92064,0.78829,-0.0791,0.43104,1.0178,0.048549,0.099534,0.35464,-0.38498,0.71191,0.30356,1.2218,-0.33409,-1.0483,-0.58914,-1.2014,-0.25753,-0.69111,-0.30841,0.1507,0.27815,1.0942,0.81357,0.55859,0.4057,-0.1808,-1.4051,-0.48717,1.1198,-0.51267,0.45661,-0.48719,-0.86977,-0.81871,0.68627,2.0637,-0.51255,-0.89513,-0.41055,0.074026,1.8596,-0.61471,-0.4617,1.1708,0.099546,-1.4563,-0.76748,-1.2521,-0.69111,1.1452,2.8797,-0.89543,0.15045,-0.30865,0.20164,-1.0992,-0.30846,0.58425,0.17609,-1.1758,-0.002436,0.43115,1.2474,0.71169,0.023017,-0.181,0.71183,-1.2522,-1.2779,-0.74226,0.20146,0.43101,-0.20661,-0.05347,-0.25744,-1.1756,0.53333,0.27812,0.45664,1.0178,-0.028103,0.68619,1.0178,-0.64013,-0.84419,-1.6349,0.099613,0.40562,-0.43607,-0.4616,0.71173,-0.1811,0.86478,0.6097,-0.7932,-0.97175,0.76283,1.477,-0.35955,-0.20651,-1.6604,-0.028005,0.45661,0.22717,0.48214,-0.51276,0.60973,-0.89521,0.78821,1.0688,0.58414,-0.13,-1.4307,-1.9663,0.048616,-0.053495,0.86471,0.022968,0.17605,0.20152,0.50773,-0.25757,0.30371,-0.74214,-0.56372,-0.30858,0.71175,1.2475,-0.69115,-1.4055,0.63518,-0.2318,-1.2522,-0.053372,3.2114,-0.86994,1.5788,-0.2067,-1.2778,-1.0737,0.76282,-1.992,-0.43604,-0.48706,1.3494,2.3697,-0.89524,0.099564,-0.89522,1.0178,1.2728,-0.079021,-1.5839,-1.3797,-0.94605,-1.1504,1.7829,0.83909,0.63507,-0.28312,0.12512,-0.436,0.63526,1.375,-1.3289,-0.15543,-1.0227,0.15065,-1.3033,0.86472,1.4768,1.1963,-0.64026,-0.027969,-1.8389,-0.41049,-0.84417,-0.43599,-0.58898,0.76275,1.5279,0.66065,-0.079051,-0.99728,0.73731,0.78821,-0.92079,1.7832,-1.2522,-0.58911,-1.737,-0.5637,0.4822,0.30361,-0.61468,1.0433,0.22705,0.76277,-1.3798,0.43128,0.91583,0.25265,0.32912,-0.2066,-0.46167,-0.74223,1.63,-1.2268,-0.71663,-1.5073,0.17614,2.4208,0.53317,-0.66567,-0.078984,-0.56355,-0.86958,1.4259,-0.25767,0.78818,-0.66569,-1.6349,0.22712,0.27803,0.22706,0.6863,-0.38502,0.023072,0.45666,-0.18106,0.27806,-0.58909,-0.56358,0.73725,0.55871,-0.94627,1.9871,-1.788,-0.053482,-1.5584,0.40563,0.86483,-0.84405,-1.1502,1.0178,0.73708,1.7064,0.43106,-1.0482,-1.5328,0.45667,0.15054,0.27811,-0.2065,-0.027925,-0.002448,0.27809,0.17605,-0.25757,-1.0482,-1.4818,-0.5892,1.5279,0.66074,-0.94622,0.2527,0.12507,0.63517,1.0433,0.022956,0.91575,-1.2268,-1.5072,-0.25729,-1.0483,-0.053562,0.60954,0.94114,1.0688,0.32915,-0.28297,-1.3032,-0.48704,0.78829,-0.58915,-0.053451,2.1402,-0.66576,-0.92079,-0.10452,-0.15559,-0.078996,0.86491,0.1762,0.22707,-1.2523,-0.28309,0.86472,0.099473,-0.84431,0.94133,0.48228,-0.23184,-1.3542,-0.30861,0.30353,0.2525,0.022956,0.35461,0.25262,1.528,-2.4767,0.27821,-0.76761,-0.97173,0.023108,0.38006,1.3493,0.32907,-0.15545,-0.64004,1.9361,-0.48717,1.936,-1.0993,-1.2778,-0.89509,0.45675,0.17606,0.17593,-0.61468,-0.58913,0.53312,0.73729,-0.71659,-1.3288,3.2625,-0.38513,0.17606,-0.053427,-1.4308,-0.002528,0.12504,0.50768,0.66075,-0.74217,-0.6402,-0.51268,0.6352,-0.69116,-0.23198,0.38017,0.8648,-0.9207,0.94141,0.40562,-0.028066,-0.38508,-0.15535,-0.94612,1.1453,1.0942,-0.35972,-0.15567,-0.28312,-0.2576,0.71181,-0.51244,-0.56351,-0.30846,0.78831,0.25257,-0.28309,0.048487,-0.28306,-0.41052,-1.1757,0.22711,0.68613,0.50757,-0.69124,1.2984,1.273,0.86484,-1.0993,-0.33403,-1.4308,-0.078953,0.099521,0.96676,0.22701,-0.86981,0.023084,1.6556,-0.71665,-0.97163,-0.5126,0.48219,0.32913,0.20163,0.63519,0.27809,-0.74215,-0.53822,-0.18112,1.5024,0.048445,0.048585,-0.76753,-0.742,0.45686,-1.0228,1.0688,0.60959,-0.33416,0.15052,-0.15552,-0.89521,-0.12998,1.5536,-0.56358,-0.33399,0.38019,-0.66565,0.96677,1.6809,-0.92072,-0.74216,-0.64014,-0.10454,0.50758,0.43111,0.32917,-0.078917,0.099577,0.022943,-0.25759,0.83929,-0.64005,-0.97162,1.477,-0.00254,0.86469,-0.079002,-1.8645,-2.0686,0.53318,1.7831,-0.81858,-0.38503,0.17599,0.78814,0.20156,-0.18098,0.25261,-0.86972,1.3495,0.38011,-0.64015,-0.2065,-0.30854,0.68616,0.048433,0.073995,0.58433,-1.6093,-1.0993,-0.53815,1.3749,2.038,0.20154,-0.33412,-0.33407,-1.0738,-1.8644,0.32936,0.2782,0.89022,-0.07913,0.99222,0.12504,-0.56364,-0.002467,-0.15548,0.20166,-0.25745,-0.8186,0.45675,0.50767,-0.48722,0.81366,0.022937,-0.66562,0.20171,-1.4818,-0.10439,0.94128,0.50755,-0.20662,0.35454,0.17604,-0.079033,-0.74221,1.0688,1.4515,-0.66555,-1.3032,-0.9206,0.15057,0.60967,-0.20661,-0.86982,0.68619,1.2219,-0.71665,-0.51255,-0.002412,0.40561,-0.028042,1.0432,-1.0739,0.5077,-0.74214,0.32919,0.40574,-1.2267,-0.38509,-0.053537,0.45656,0.99225,-0.1045,-0.35956,1.0179,-0.30853,0.27811,-0.283,-0.35951,-0.027974,0.89031,0.023047,-0.43607,-2.0686,-0.10455,0.81383,0.68632,0.27807,0.45665,-0.71665,-0.64019,-0.89528,2.6503,-0.84424,-0.64016,-0.15535,0.86485,0.78819,1.1453,-0.74225,-1.2267,-0.46154,1.0943,-1.0228,-1.0736,0.25267,0.81377,0.40559,0.022913,1.3239,-0.38506,0.023035,-0.28306,-0.97177,-0.027882,0.32921,0.50768,-0.76771,0.12504,0.15054,0.22713,0.27824,-0.002394,0.022937,0.63511,-0.053476,-1.0992,-0.97169,-0.33409,0.43107,2.4971,1.5789,-0.61468,-1.1503,-0.64005,-0.027871,-0.74221,0.83925,-0.99729,1.222,-0.33399,-0.74225,-0.81873,0.96686,0.71171,-0.20665,0.35462,-0.18104,-0.18101,0.099637,-0.48707,-1.3033,0.71173,0.048518,0.27812,-0.8442,0.50766,1.6045,0.074111,0.81391,-0.8442,-0.89532,-0.56375,-0.23218,-0.15556,0.2271,-0.18099,-0.002277,-0.002363,0.68623,0.60967,-0.9718,0.91582,0.63528,-1.3034,-0.002454,-0.58913,0.50767,0.023054,-0.23205,0.12501,0.48214,-0.10458,0.3036,-0.078874,-1.3797,-1.0481,0.3036,0.99222,1.1707,0.099473,0.32903,-0.2831,0.2782,0.53338,-0.9207,0.32917,-0.38503,-2.4002,0.20157,1.0433,0.27803,1.1453,-0.81873,0.66073,-0.92071,1.1965,-0.97174,0.60975,0.32916,-0.41062,-0.8953,0.68627,-0.2829,-1.0737,-1.0994,2.2421,0.55858,-1.0994,-0.15554,0.6862,-0.8187,-0.94615,0.55879,1.1709,0.12501,-0.25757,-0.53808,-0.23194,1.9616,-0.53817,-0.43616,1.1453,-0.92074,-1.5073,-0.71665,-0.10448,0.60967,1.4004,1.1964,-1.2523,0.63527,-0.7932,0.20153,0.60973,0.12514,-0.1044,-0.64007,-0.79318,0.7372,-0.02806,-0.92079,0.45667,0.12499,-0.43619,0.96681,-0.71665,0.43128,-1.8644,0.5843,2.2422,-0.64023,0.32899,0.048427,0.96686,-0.38496,-0.99721,-0.002467,-0.76766,0.35464,-0.9208,0.73719,-0.002521,-0.28309,0.86484,-0.25758,0.78828,-1.2268,0.15059,-0.30855,1.3749,0.17606,-0.79321,0.55873,-1.6094,0.22708,0.074057,-0.20649,0.12511,0.023047,0.43114,0.20161,0.3546,-0.79316,-1.2524,0.55875,-0.33404,0.76277,0.02301,-0.8443,0.83927,1.7831,-0.81871,-0.20652,-0.41057,0.6863,-0.69115,1.0944,0.71175,-2.2982,-1.1757,-1.3543,-0.33412,0.63508,1.4258,1.8849,-0.002528,-0.18097,0.48226,-0.56357,-0.18095,-0.43601,0.15062,-0.20656,0.78821,-0.56363,1.1964,0.76273,-0.89529,-0.56362,-0.74204,-0.86956,-0.56367,0.048415,1.3238,-0.15555,1.5535,-1.6094,0.022998,-0.10447,0.89036,1.2985,0.17616,-1.8645,-0.76764,1.0943,-0.15562,-0.61471,-0.56369,0.89032,0.60977,-0.078941,-0.2065,1.0178,0.50766,0.27812,-0.15548,-0.56361,0.43115,-0.25757,-0.99729,0.50769,-0.53817,0.023054,-0.33401,1.069,-1.3542,0.17612,0.38001,0.81365,0.83915,-0.15561,-0.35951,-0.56342,-1.2268,0.25248,-0.079106,0.96677,1.2475,-0.64011,1.1198,-1.5075,1.4515,-0.61465,-0.078972,-0.58912,-1.2013,-0.053378,-0.18078,0.099626,-0.38519,-0.38522,-0.28315,1.0942,1.5279,-0.20661,-1.2523,0.66083,-0.41054,0.43126,-1.3543,-0.74212,1.1964,0.40566,-0.43611,-0.28314,0.17602,0.66072,0.27805,-0.76776,-0.79319,-0.078923,0.12513,2.1401,-0.43609,-0.46155,-1.0227,-0.46157,0.83932,-0.30845,-1.0737,1.1453,0.073868,1.0431,0.40549,-0.3086,-0.5379,-0.5123,-0.48697,0.78816,0.68613,0.048427,1.0943,-0.079045,-0.8187,0.30366,0.099619,-1.0993,-0.99721,0.68622,-0.181,0.12506,0.20158,-1.4564,0.8904,1.3751,-0.028005,1.0177,0.25251,0.12496,-0.35962,-0.74213,-0.92073,1.3239,-0.92072,0.68625,-0.2065,0.6607,0.50763,-0.15554,-0.89519,0.074216,-1.7113,-0.74212,0.6861,0.71159,0.35462,0.86488,0.71168,-0.028018,-0.5382,0.60971,-0.53815,0.86474,0.58432,-2.4256,1.477,-0.64017,-0.89527,0.99229,0.099528,0.20158,-1.3543,0.20167,1.0689,-0.25755,0.022992,1.0178,-0.28299,0.73731,-0.71673,-0.89527,0.73728,-0.58904,-0.64006,-0.56365,0.86464,0.55847,1.5024,-0.66566,-0.5125,-0.23196,-0.053525,-0.4361,0.66075,0.83928,-0.71669,-0.6146,-0.81861,0.12524,-0.86956,0.58417,0.048371,1.3237,0.68616,-1.0483,0.023096,-0.99721,0.27815,1.1709,1.3493,-0.18109,-0.92076,-0.61457,-0.15542,-0.30845,-1.4562,0.20156,-0.48716,2.1656,0.22691,1.8084,0.96683,-1.4818,-0.97168,-0.89522,-0.66566,0.32919,-0.078996,-0.89526,1.0178,1.1709,1.681
-0.15549,-0.181,0.048567,-0.10449,-0.027974,0.074038,0.023017,-0.02798,0.2526,0.15059,-0.027956,-0.15549,-0.61464,0.074062,0.50769,-0.15553,-0.15554,-0.078996,-0.15552,-0.38506,0.96685,-0.33406,-0.027969,0.2526,-0.38509,-0.48709,0.94133,0.099564,-0.13,-0.4871,-0.078984,-0.38508,-0.18101,0.12508,0.20158,0.22709,0.27809,0.099552,0.048536,-0.02795,-0.078972,-0.15551,0.074069,-0.053476,0.048531,-0.20653,-0.10451,0.25262,0.20158,-0.23204,-0.30858,-0.35956,-0.10447,0.023059,0.15058,0.89029,-0.3851,0.81376,-0.1045,0.023041,-0.46159,-0.002443,-0.18101,-0.7932,0.45668,0.32913,-0.4361,0.09954,0.22708,0.099546,0.2271,-0.002461,0.099583,-0.41057,-0.30855,-0.15551,0.023041,0.048518,0.78825,0.023029,0.12508,-0.20653,-0.41056,-0.10449,0.074044,0.17609,0.20156,0.17607,-0.13003,0.2781,-0.002479,-0.30857,-0.41059,0.023035,0.25259,-0.053482,0.25259,0.22707,0.22707,0.074057,-0.15551,0.22711,-0.1555,-0.10447,-0.4871,-0.35956,-0.078977,0.50768,0.074062,-0.28307,-0.18103,0.48219,-0.15548,-0.18101,-0.15551,1.1709,-0.18104,0.15057,-0.12999,-0.23202,-0.30854,-0.13,-0.15551,0.30362,0.40565,0.048525,0.048543,-0.18103,-0.18101,-0.078977,0.4567,-0.43608,0.048561,0.074051,0.15057,-0.13,0.099564,0.12508,-0.027987,-0.13002,0.074038,-0.027974,-0.38505,0.2016,0.27811,0.099564,-0.1045,-0.078984,-0.002472,-0.23204,0.074044,0.074062,-0.027944,-0.23201,-0.10449,0.074033,0.17608,0.17609,0.074051,0.20158,0.099559,0.27815,-0.078984,-0.30855,-0.28307,-0.43609,-0.002472,0.32914,0.40566,0.074038,0.048536,-0.23203,-0.33406,-0.12998,-0.10449,0.2271,0.20159,0.20156,0.074051,-0.053482,-0.027962,-0.12999,-0.181,0.048561,-0.20652,-0.027974,0.12507,0.048549,-0.12999,-0.002472,0.074044,0.12508,-0.41056,0.50769,-0.46163,-0.13002,0.8393,-0.25756,-0.30857,-0.51262,-0.002448,0.48218,0.63523,0.15057,-0.25753,-0.4871,-0.33407,0.15056,0.45666,0.09954,-0.28305,-0.078972,-0.12998,-0.10449,0.17608,0.22709,0.38013,0.17606,-0.13001,-0.13002,-0.12999,-0.10447,-0.027944,0.099577,-0.7167,0.2271,-0.20653,-0.13001,-0.18101,0.86478,0.074062,0.15057,-0.38508,-0.35957,-0.181,-0.027962,0.2271,0.099559,0.074044,0.023029,-0.027974,0.22711,0.023047,-0.66564,0.27813,0.73727,-0.66566,-0.30855,-0.053495,0.17609,-0.23202,-0.15552,-0.15552,0.17607,0.27812,0.12507,0.023035,-0.002467,0.048549,-0.181,-0.20652,0.023029,0.35465,-0.4871,0.27812,-0.05347,0.32915,-0.18102,-0.078996,-0.027993,0.09957,-0.15551,-0.35956,-0.53811,0.48218,0.63523,-0.10452,-0.23205,-0.20653,0.32914,0.12509,-0.181,-0.94624,0.2526,2.4718,-0.66567,-0.28304,-0.18103,-0.10452,-0.07899,-0.13,-0.05347,0.023047,-0.053458,-0.027993,-0.1045,0.17608,0.12508,0.09957,-0.15552,-0.002467,-0.13,0.20162,0.4822,-0.35957,-0.3851,-0.15553,0.20161,-0.002454,0.023035,0.12505,-0.002461,-0.18101,-0.10447,-0.28303,0.15057,0.15057,0.35463,-0.079008,0.45667,-0.58913,-0.1045,-0.13,-0.15553,0.074062,-0.13,-0.33405,0.2271,0.15059,-0.079008,0.099564,0.12508,-0.027956,0.074087,0.048567,-0.33405,-0.15552,-0.43611,-0.18104,1.528,-0.69118,-0.53812,0.30363,0.048543,0.15057,-0.078996,-0.23204,0.12507,-0.23204,0.17608,0.17611,0.099583,-0.46158,0.35466,0.50771,-0.33405,-0.027962,-0.20652,-0.23203,-0.20653,0.15058,0.074051,-0.28305,-0.027969,-0.002461,0.048543,0.048531,0.6097,0.30362,0.15057,-0.58913,-0.20651,-0.20653,-0.027969,-0.0535,-0.35958,0.30363,-0.078984,0.1761,0.1506,0.048549,0.074051,-0.20653,-0.43609,-0.07899,1.2219,-0.25756,-0.15553,-0.20653,-0.10449,-0.07899,0.71175,0.023029,-0.15553,-0.20652,-0.28305,-0.33407,0.25262,0.2781,0.30362,-0.1045,-0.13002,-0.002472,0.023035,0.20159,-0.12999,-0.10449,0.048536,0.17606,0.074051,0.12507,-0.10447,-0.1555,-0.053495,0.074057,0.048555,-0.10449,0.22711,-0.48713,0.17609,0.35465,-0.66566,-0.13002,0.38014,0.27812,0.40567,-0.13,0.27811,-0.51264,-0.58916,0.38015,0.43118,-0.33406,-0.18101,-0.027987,-0.002467,0.074057,0.2016,-0.07899,0.099552,-0.33407,0.38017,-0.33405,0.71175,-0.33408,-0.0535,-0.027987,-0.18101,0.048549,0.12505,0.048536,0.17608,-0.13,-0.078984,-0.078972,-0.002454,0.048561,-0.002454,0.074051,-0.1045,-0.027969,-0.027987,-0.18101,0.20159,-0.10452,0.023023,0.2271,0.023029,-0.02798,0.30364,-0.12998,-0.28303,-0.43607,-0.33404,0.023054,0.38016,-0.05347,-0.053488,0.20159,0.22708,-0.58916,0.17607,0.12507,-0.33408,0.17609,0.17607,-0.13001,0.023029,0.074057,-0.027969,-0.181,0.38017,-0.078977,-0.43609,-0.13002,0.22521,0.25071,0.1742,0.1232,0.072198,-0.078996,-0.10451,0.32912,-0.18101,-0.12999,0.25262,-0.053488,0.023023,-0.1045,0.048549,-0.12998,-0.027969,-0.027993,0.15057,0.12508,-0.002461,0.40567,-0.46159,-0.15552,0.074038,-0.02798,-0.053464,-0.053458,-0.23203,0.38015,0.71173,-0.43612,-0.20653,-0.20652,0.048549,-0.027974,0.17607,0.074051,-0.027969,-0.05347,0.048561,0.12507,0.074044,-0.07899,-0.02798,0.38016,-0.05347,-0.1045,-0.053495,-0.23204,-0.18104,-0.13003,0.25258,0.17607,0.17609,-0.002436,0.023059,0.023059,-0.10449,0.25262,-0.15553,-0.079014,-0.002479,-0.053488,-0.002454,-0.58912,-0.078977,0.86482,-0.33406,-0.33406,-0.078996,-0.002467,0.22708,0.023023,-0.027974,0.22712,0.17611,-0.1555,-0.28305,-0.027993,-0.23204,0.048536,0.53319,-0.078977,-0.53811,-0.33406,0.023035,0.15057,0.12506,-0.078984,0.27813,0.17609,-0.002467,-0.027993,-0.078996,-0.1045,-0.10447,-0.002454,0.15059,-0.28307,1.63,-0.69118,-0.35959,-0.38508,-0.23204,-0.15552,0.023035,0.099577,0.25262,0.15058,0.023047,0.17609,-0.053488,-0.002491,0.023023,0.023029,-0.027969,0.074069,0.2016,0.023054,-0.13001,-0.18103,-0.15552,-0.1045,-0.053488,0.023017,0.048531,0.099564,0.099546,0.12506,0.074038,0.048525,0.30361,-0.10451,0.048561,0.023041,0.30364,-0.20652,-0.23204,-0.15551,-0.002467,0.27813,0.58421,-0.41059,-0.30858,-0.002479,0.45668,0.91579,-0.25754,-0.5126,-0.38508,-0.20654,-0.53815,0.60969,0.91578,-0.89524,0.38019,1.9107,0.50773,0.66074,-2.5022,-1.3799,0.48212,-0.35962,-0.078977,1.5535,-1.6859,0.023054,1.0178,1.6555,-3.5736,0.68622,2.3442,-0.99734,0.25262,-0.46162,0.68621,0.48223,0.099644,0.27825,-1.5329,0.99226,-3.5482,2.7013,-1.6348,-4.1088,1.1454,2.2419,5.9405,0.40539,1.1198,-4.0328,0.12507,2.8544,-6.1752,-0.23186,3.7476,-5.1292,3.6961,-0.89537,-3.1656,0.6861,-1.5839,3.084,-1.3798,-0.027834,-2.0687,3.4918,-2.4769,4.1297,-0.10472,-4.0838,-0.89501,-0.63969,-0.33359,3.3135,0.78821,-0.23233,0.022913,1.579,-0.35953,-0.76755,-0.51267,0.073892,0.43099,1.3238,-0.79336,-0.79316,-0.41035,-0.56322,-1.5072,-2.0432,2.4717,0.68632,2.0382,-0.35967,-2.2217,0.37997,2.6501,1.3747,-0.56369,-1.0737,-1.4563,-0.027858,0.89035,-1.0482,-0.41037,2.7015,0.94137,-0.56362,-1.5585,-0.28306,-1.38,0.55857,0.073928,-0.61472,2.3952,0.048536,0.20159,2.3188,-1.2012,-1.6093,-1.4819,-1.9156,-0.7422,3.1604,1.2473,-0.18101,-0.078892,1.273,1.1453,-0.079039,-1.0738,-1.6349,0.38049,-1.3542,-0.61472,1.0686,0.63498,-0.002307,-0.74211,0.12514,1.5279,0.94117,-0.58924,-0.23201,1.0688,1.0434,-1.4819,0.15059,0.81379,-1.0737,-1.8135,0.22712,0.099564,0.55869,-2.4512,2.8545,-1.0227,-0.41058,0.94122,0.15043,1.732,-0.12995,0.5079,-1.533,0.2526,0.53336,-3.5991,-0.99752,2.5481,0.76261,0.099626,-0.51246,-0.43589,0.48214,0.15049,-0.2066,-0.18099,0.55886,-0.28295,1.1964,0.32913,-0.76766,-0.9972,-0.053415,1.2474,-1.227,-0.79327,1.1964,1.0178,0.17602,-0.97174,-0.71663,-0.61463,0.55873,-0.61457,1.6811,-2.2726,0.76259,0.53311,0.2271,-0.028023,0.4311,0.4567,-0.64001,0.48235,-1.9664,0.17614,1.8595,0.27797,-0.35967,-1.0483,-1.4054,0.68624,-0.2575,1.0944,-0.20639,-0.99719,0.89019,0.68608,2.6247,-0.79325,-1.7114,-1.2778,0.58432,-0.43612,1.5535,-0.69122,-1.8901,-0.61458,-0.46161,1.528,1.6299,-0.13007,0.73723,-0.41055,0.86483,0.58426,-0.61467,-0.51264,0.2526,-0.053415,-1.2267,-0.002552,-0.41068,1.2984,-0.64015,-0.10452,-1.8136,1.579,2.8034,0.96679,-0.84433,-0.35972,-0.58919,-1.0737,0.25284,-1.6347,1.2474,-0.23214,0.40549,0.15045,-1.686,0.83933,1.2474,0.30361,-0.20646,-0.002307,0.023121,-0.56366,-0.12999,0.022961,-0.38516,2.0891,-0.53818,-0.46159,-0.97174,-0.51258,-1.6093,-1.2268,1.528,-0.002534,2.3697,0.3802,-0.15538,-0.97172,-0.43614,-0.028005,1.2473,-0.46168,-0.43607,0.63515,-0.25763,-0.23206,0.68626,0.27814,-0.48704,-1.8133,1.3751,-0.46149,-0.56359,0.30356,-0.002681,-0.20666,-0.66565,1.8852,0.20164,1.6554,-1.635,-0.66566,-1.4308,-0.12994,0.15056,0.20157,0.63517,0.15051,1.0178,2.5993,-1.737,-1.5074,1.3495,-1.0483,0.023059,-0.92053,-1.7622,0.45666,0.27795,1.2728,0.60961,0.6607,0.048585,-0.89534,0.30358,0.20159,-0.64014,0.91602,-1.3542,1.9361,-0.66576,-0.76779,-0.61472,-0.23205,0.023054,-0.28314,2.2421,1.1199,-1.2521,-2.3743,-0.66555,-1.3288,2.5482,0.96655,0.94103,0.71162,-0.13007,-1.2779,-0.56359,0.023194,-1.5073,2.88,-0.84413,1.2729,-0.7167,0.40558,-1.2269,0.30354,-0.48718,-0.51255,0.22717,-0.028011,0.45661,0.099546,0.66079,-0.41049,0.86485,0.40565,-0.43618,0.32912,-0.69111,-0.23203,0.8137,-0.23203,-1.3033,-0.07907,-0.66565,-0.30846,0.96689,-0.28305,0.38018,-0.46156,0.81368,-0.38511,0.73726,-0.028029,-0.05347,0.30363,0.25257,-0.027938,1.4516,-2.604,-2.4767,0.78818,0.94116,0.78814,-0.7166,-1.2522,0.43124,0.22696,-0.053506,0.81383,1.3239,0.1505,0.35458,-0.58919,-0.2065,-0.3085,-0.99708,-1.2522,-0.89526,0.53314,1.2218,0.55858,-0.18109,-0.15553,0.17604,0.2272,-0.078898,0.099644,-0.69125,0.35454,0.68613,-1.2013,0.30373,0.4822,0.55867,1.732,-0.56369,0.30372,-1.8134,-0.35976,0.38,-0.232,0.27822,-0.89512,-0.58918,0.25256,1.1963,1.2985,0.38028,-2.1705,-1.1503,1.2219,2.3951,-0.07907,-2.247,-0.56326,-2.8592,1.7829,0.32893,0.71155,0.7116,0.55875,-0.28297,-1.2012,1.0689,0.32915,-0.35959,-0.002485,-0.69115,-0.18107,1.0689,0.91584,-1.1502,-0.43595,1.2474,-0.48708,-1.7113,-0.74227,0.20139,-0.4873,1.8596,-0.38507,-0.20655,0.89026,0.94136,-0.12991,-0.86967,0.43112,0.38016,-1.6859,0.63526,0.023096,0.22715,-0.10445,-0.15554,-0.4362,-0.41059,0.073977,-0.028036,0.099675,-0.48693,0.25256,0.43104,-0.079118,1.6044,-0.15553,-0.64005,0.4822,1.7321,-0.64014,-0.6911,-1.7369,-1.6604,0.17607,0.48209,1.5279,0.22709,-0.84419,-0.89516,-0.1044,1.0433,-0.079124,0.9667,0.38016,-0.053427,0.58409,-0.56369,-1.0992,0.86498,-0.10435,-1.2269,-0.002552,0.15049,1.3494,-0.18098,-1.2778,0.43117,0.86483,0.27817,-1.2269,1.1198,-0.5637,0.40565,0.78828,0.30363,-0.56362,-1.5839,-0.10444,0.12505,0.30355,0.71166,1.0943,-0.53814,-0.30853,-0.7676,0.6863,-0.2319,-0.81866,0.022901,1.2728,1.9871,0.60968,-0.64023,-1.1503,-0.69107,-1.7623,-1.1501,0.1506,1.2983,0.89014,0.048451,0.86482,-2.0175,2.8289,0.89027,-1.6094,-0.61455,0.22729,-0.13004,0.3545,-0.20668,0.91572,-1.2268,-0.25745,-0.13011,0.20154,-0.23204,0.32929,-0.92066,1.4259,-0.079051,0.07402,1.0178,-1.0738,-0.79326,0.55869,-0.5891,0.099735,0.30379,0.048604,0.30355,-0.002662,-0.053635,-1.5074,0.76289,0.17616,0.023065,-1.6604,2.0381,1.6044,0.40555,-0.79316,-1.3288,-0.81873,-0.76772,0.17607,0.96684,0.32918,-0.58908,0.32915,0.6608,-0.51261,-0.43617,0.40562,-0.3341,-0.23202,-0.2575,1.0688,0.48218,1.1709,0.48218,-1.5329,-0.7423,-2.0942,0.1761,2.0636,1.0178,-1.4563,-0.56349,0.81389,-0.079014,-0.46172,-0.84422,0.27811,1.9617,0.78828,-0.25758,-0.84427,-1.2524,-0.43609,-0.7422,0.60967,0.50766,-0.94622,0.53329,1.1709,-0.078959,1.7321,-0.81876,-0.53823,-1.4053,0.32918,1.0689,-1.2013,-0.53807,-0.66569,-0.028072,0.8137,1.0943,1.783,0.58427,-1.2523,-0.46157,0.02309,-1.3033,-0.46157,-0.18101,-0.53817,3.1605,-1.3544,-0.53814,1.7576,-1.2268,-0.41052,-1.2013,-0.18106,0.2015,0.81375,1.7066,-0.74209,-1.2523,-0.079039,-0.69128,1.4004,-0.20663,0.89025,-0.69117,-1.0227,-1.0226,0.48217,-0.15557,1.0688,-0.20656,-0.078996,0.15059,1.273,-0.53815,0.48214,-0.89524,-0.48699,-0.53805,-0.61465,0.83922,-0.89533,1.3493,0.40555,0.20158,-1.3798,0.15071,-1.0737,-0.94617,1.8342,0.32908,-0.18105,-1.0484,0.45659,0.023023,-0.385,0.89034,-0.46159,0.48222,0.074111,-0.69113,-0.64019,-0.94641,1.834,1.0434,0.048659,-0.89517,-1.0483,-0.1811,0.96676,-0.28312,0.81379,-0.027969,0.023029,-0.79314,-0.84415,1.2729,-0.385,0.1251,-0.33404,-0.10454,0.43109,0.58418,-0.28309,-0.43611,0.6352,-0.89523,-0.86959,0.55886,0.66076,-1.5074,-0.61477,1.1962,0.68611,-0.33407,1.0944,0.43116,-0.53805,-0.74208,0.15061,-0.48708,-0.18101,-0.3086,1.2219,0.68618,0.22707,-0.48708,-2.043,-1.1757,0.43109,0.20147,0.20155,-0.23202,0.60978,0.94149,-0.84417,0.89023,0.30349,0.96671,-0.53817,0.7116,-0.23198,-1.2012,1.4771,-1.8134,-0.81866,0.12514,0.38008,0.099454,0.76261,-0.4107,0.2526,-0.58905,-0.28294,0.27815,0.58422,-0.4871,3.084,-0.69116,-0.28305,-1.3034,-0.64021,-0.0791,0.58408,1.8341,-1.3287,-0.86944,0.099503,-0.35971,-0.20666,-0.3086,0.63523,-0.053513,-0.35964,0.48216,0.94136,1.528,0.63525,-0.69116,-2.4767,1.324,0.023127,-0.6911,0.2526,-1.533,0.35458,-0.92078,0.43126,1.5536,-0.64011,-0.66583,0.86467,0.53314,0.074013,0.32914,0.58418,-0.92065,0.17631,-1.2777,-0.66575,1.2473,1.4259,-0.13005,-0.2831,-0.25754,-0.10448,-1.0227,0.35471,-0.10442,-0.35953,-0.81868,0.17604,0.83921,-0.15556,-0.56367,0.17612,-0.76764,0.17605,-0.18102,1.273,0.71178,-1.2523,-0.56358,-0.2321,1.2217,2.1146,0.50772,-2.9611,-1.9153,-0.283,1.7574,0.45647,0.15041,-0.15557,0.45663,0.4822,-0.35946,-0.2575,-0.078917,-0.69108,-0.79318,1.6301,0.023059,0.7118,0.55869,-0.28315,-0.69127,0.048525,-0.10456,0.48216,-0.4615,-0.33399,-0.46147,0.35458,0.66069,0.27804,1.2217,0.99224,-0.6401,-0.30845,-1.2522,-0.10444,-0.69119,0.9413,0.43115,-0.48696,0.58427,-0.48714,-1.584,-0.99734,0.78825,-0.46153,0.76277,1.3749,0.15052,0.76273,-0.6147,-0.92076,1.7831,0.89035,-1.3033,-0.027925,0.27814,-0.97176,-0.6911,-0.20642,-1.0994,0.76263,1.1198,0.60971,-0.84409,-0.97176,0.53319,0.27802,1.2218,0.66066,-0.10454,0.25259,0.1506,-0.94616,-0.35949,-0.81865,0.40573,-1.2523,0.58425,-0.33409,0.073989,-0.15556,-0.35956,1.1199,0.43112,-0.51263,-1.5075,1.8595,-0.25752,0.81379,-0.74218,-0.64025,0.17598,-0.002497,1.3495,1.324,0.45675,-0.69113,-0.43603,-1.8134,-1.0738,-0.10449,1.2984,0.48209,0.35458,-0.30856,0.023078,-0.4871,-1.5075,2.0127,-0.027889,0.53332,-0.41051,0.07391,0.1759,0.27792,0.30346,1.171,-1.6347,0.99246,-0.10452,-0.46156,-0.18102,-0.35951,-0.46169,-0.053604,0.22702,1.7575,-0.1045,-0.84413,-0.3595,-0.7167,0.68624,0.074038,0.023047,0.38016,0.12507,-0.20651,-1.4053,-0.18094,0.20159,0.8392,1.1708,0.30355,-0.61465,0.71168,0.17608,0.40574,-0.56348,-0.66566,-0.7933,0.73715,-0.30864,-0.25749,-0.20652,-0.53798,-0.33393,0.32905,0.9412,0.73717,0.94127,0.38014,-0.30854,-0.99721,0.099681,1.2475,-0.58918,-1.1504,-0.46167,-0.81871,0.60977,-0.30847,0.91579,0.17595,1.6044,-0.028023,-0.74211,-1.1247,1.5536,0.20159,-0.28317,-0.053592,0.048458,-0.76767,-0.51257,-0.028005,0.25265,-0.13004,0.9158,-0.25751,-0.79323,2.0381,-0.61463,0.12512,-0.8442,0.73726,-1.1248,-0.69121,1.4004,1.0688,-1.1758,-1.941,0.22722,1.63,0.12497,0.32905,-0.69121,-0.46162,0.55876,0.66072,-0.92077,0.2526,-0.027931,0.04858,0.22712,0.45664,-1.1502,-0.76764,1.0944,-0.15559,-0.23216,1.0688,-0.079008,0.58426,-1.1757,-0.58911,0.12507,0.38018,-0.94617,1.2984,-0.53821,-0.18108,-0.053488,-0.28289,-0.51246,1.4003,1.987,-0.4873,-0.64025,-0.69115,0.12527,-0.89497,-0.86966,1.4769,0.27793,0.7626,-0.38514,-1.0483,-0.18092,-0.46159,0.50777,1.0434,1.1964,-2.2982,-0.43609,0.60973,0.73723,0.48218,0.50765,0.73726,-0.35952,-1.3288,-0.66561,-0.71662,-0.46162,-0.38514,2.1402,-0.7423,0.53314,0.43113,-0.51263,0.40571,-0.30845,0.30366,-0.64018,-1.1248,1.375,0.17614,-0.89521,-0.002491,0.30367,-0.76764,-0.86954,-0.23198,0.2525,1.4768,0.17593,0.91568,-0.10458,-0.20656,0.40573,-0.35942,-1.4307,-0.07891,2.1402,-0.18107,-0.053592,-0.23213,0.074033,-0.61467,-0.002479,-0.53812,0.6607,-0.35957,-1.0227,-0.25729,-0.43592,1.2473,2.1911,0.99223,-0.13011,-0.079093,-1.0993,-0.053464,-1.4308,0.25273,-0.94625,0.15054,0.78829,-0.28305,-0.6402,0.99232,-0.002491,-0.13,0.8392,-0.15556,0.35461,-1.0483,0.53323,-0.28294,-0.56359,-0.74223,1.2219,-0.43609,-0.41057,0.5332,0.12504,-0.38508,-0.43607,-0.1555,0.38023,-0.51258,0.58417,1.5024,-0.99732,-0.00251,-0.002497,0.12501,0.43113,-0.51257,-0.20641,-1.1501,0.22719,-0.64017,-0.25762,1.9871,0.27808,-1.4054,-0.027938,-0.71673,1.2218,1.5279,-0.028011,-1.5839,1.0945,0.5078,-0.94615,-0.99731,-0.35967,-0.41069,2.1401,0.4311,-0.43609,-1.1758,-0.46156,0.1506,0.78824,-0.20658,0.2271,1.273,-0.46149,0.71182,-1.1758,-1.4055,0.53318,0.099491,0.71173,-0.38502,-0.181,0.023072,0.4056,-0.33408,0.3036,0.50762,-0.38513,-0.46149,-0.46147,-0.81861,0.17609,1.8085,1.1198,-0.71676,1.4769,-1.5074,-0.76765,-0.12992,-0.86974,0.78827,-0.99721,0.5843,-0.51262,0.91577,-1.1503,0.99236,-0.46164,0.94114,0.68605,0.073989,-0.84403,-1.1755,-1.0992,1.4004,0.66058,0.38006,0.76274,-0.15554,-1.0228,-0.053446,0.12513,-0.18095,-0.053421,-0.12997,-1.2524,1.3749,-1.3034,-0.20642,0.12522,0.7373,1.8595,-0.43623,-0.35967,-0.053427,-0.81856,-0.20651,0.32914,0.32904,-0.35972,-0.10464,1.1198,0.58427,-0.97164,-0.30844,0.4568,-1.2777,0.4056,-0.13009,-0.002565,0.35458,0.099588,0.27815,-1.2523,-0.43604,0.58425,1.2729,-0.33416,1.0433,0.45659,-0.13009,-0.97163,-0.18081,-1.6347,-0.89524,0.43102,1.5279,-0.15562,3.3645,-0.41061,-0.15549,-1.2523,-0.79325,0.023041,-0.86961,-0.23191,-0.99729,0.4821,0.86471,0.66068,0.20155,0.43115,-0.71668,0.023096,-1.1502,-1.3033,3.6453,0.12504,-0.43619,-1.2779,-0.2321,0.96679,0.58417,-1.686,0.73723,0.48216,-0.86964,-0.078874,-0.15534,-1.2011,-0.13006,0.45651,2.2421,1.4003,-0.56369,-0.28296,-2.3491,-0.002369,0.8393,0.35462,-0.07907,0.50757,0.048506,-1.2268,-0.46147,0.78844,-1.0739,-0.79325,0.38015,1.426,-0.48711,-0.028072,-0.1556,0.9923,1.3494,-0.58919,-0.53812,-0.48699,0.1762,-0.002454,-0.6657,-0.48718,0.17613,-0.18099,0.68624,0.27814,-0.18099,-0.99731,0.25254,-0.28305,-0.53811,1.9872,-0.4617,0.43108,0.32923,2.1403,-3.0122,0.17612,-0.002588,-0.56375,-0.1556,-0.28316,1.7319,-0.23204,-0.56343,-1.9408,-0.053304,-0.38508,-0.28303,1.1199,0.81359,1.2982,1.2217,-0.079021,-0.28304,-1.2778,-0.69113,-1.6093,2.2169,-0.2575,-0.71673,0.99226,-1.3544,0.86478,-0.56367,0.20155,1.5024,-0.20653,-1.3288,-0.58897,-0.61453,-0.38505,1.2983,0.78818,0.022901,0.81373,0.96674,0.35459,-1.0737,-1.5073,-0.2575,0.53325,0.89041,-1.9411,-0.53821,2.2931,-0.33408,-2.2217,-0.38506,2.0892,-0.56364,-0.002491,0.20162,0.66075,0.40563,-0.38499,-1.5328,0.35458,0.30351,0.35454,0.099503,0.50768,0.58419,0.68625,-1.2778,-0.71671,-0.18097,-0.61467,-0.30851,0.27812,1.0688,-0.74222,0.68617,-0.46165,1.8341,-1.7368,-0.053255,0.099479,-0.25775,1.6044,-0.38513,-1.3033,-0.66564,0.43113,0.48216,0.2016,-0.18106,0.15054,-0.13002,-1.3798,0.30373,-0.46147,1.222,1.9871,0.40561,-0.43616,-0.66573,-0.69125,0.76267,-0.86975,-0.02795,-0.23196,0.38026,-0.48695,0.22707,0.38001,0.17595,1.1198,0.32907,-1.2267,-0.10439,0.40572,-0.74206,-0.078966,0.9922,0.15049,-0.002528,-1.2269,-0.58915,0.68626,-0.027969,0.81381,-0.078935,0.30363,-0.79319,0.17614,0.68629,-0.4616,1.3749,-0.69122,0.12502,-1.0229,-0.66575,0.30367,0.81385,-0.84403,0.35472,0.099521,-0.10456,-0.51268,0.074044,0.40567,0.022992,0.25249,0.94124,0.60991,-1.405,-2.6296,0.58407,1.4767,0.83904,0.66061,-0.30851,-0.002387,0.81377,0.73725,-0.053451,-2.3746,-0.48708,0.074075,-0.053488,-0.18101,0.48216,1.0178,0.50764,-0.76766,-0.58908,0.048629,0.17609,0.15053,0.53315,-0.35964,-0.64022,0.07413,-0.078928,0.0485,-0.69119,1.477,0.43112,1.0944,-1.0227,0.048567,-1.6094,-0.79312,0.43115,-0.002558,-0.74224,2.4972,-0.3341,-0.48708,0.12509,0.4312,-0.66562,0.023084,-0.53806,0.023047,-0.00251,1.834,-0.69112,-0.15544,-0.25761,0.22701,-0.81876,0.86484,-0.79319,0.048561,-0.43609,-0.41064,-1.5329,0.17613,2.8799,0.48218,0.048549,-0.12995,-0.64008,-0.23213,0.073928,0.78824,-1.0737,-0.18079,-0.23207,-0.56363,-0.28315,1.6809,1.6044,-0.64018,-0.46159,-0.58909,0.38019,0.50773,-1.7879,-0.28299,-0.33401,-0.28297,-0.002374,1.6044,0.78815,1.7064,0.27807,-1.1248,-2.4002,0.38013,0.50773,-0.38494,-0.7166,-0.10452,0.27799,0.45661,-0.48706,0.60969,0.50764,0.76272,0.15058,0.71185,-0.58905,0.63527,-1.4054,-0.18111,0.25257,0.22711,-1.1758,-0.30856,0.023047,-0.46167,0.048463,0.25257,0.9414,0.63543,-0.92073,0.30354,-0.00251,0.099577,-0.1555,0.68617,-0.15562,0.58419,0.023078,0.074185,-0.89521,-0.13007,1.1199,-0.81874,-0.46161,-0.20651,-0.99721,-0.15538,-0.35954,0.4056,1.5024,1.1963,-1.2523,-0.10443,1.4005,-0.078959,-0.28302,-0.51267,0.17597,0.099503,0.15058,-0.20646,-0.053311,-0.13001,-0.94634,-1.1249,0.35475,-1.1502,0.66078,0.30358,0.40555,0.53304,0.86465,-0.15556,-0.41054,1.477,-0.15546,-1.3033,0.38019,-1.0228,0.43118,-0.56367,-0.15554,0.15055,0.17612,-0.46159,0.35466,0.66079,0.71168,-0.53821,-0.58921,2.4464,-2.2726,-0.51263,-0.20656,-0.38504,0.38024,0.074124,0.27808,0.38001,0.2015,-0.002588,0.38013,-0.53808,0.023152,0.96697,-0.74215,-0.13002,-0.25755,-1.1759,0.32908,0.17609,0.023114,-0.41044,0.45674,-0.38513,-0.76776,0.27806,1.4514,0.38011,0.43118,-1.2013,0.91573,0.55861,-0.23219,0.83928,0.86494,-2.604,-1.5583,1.0432,0.09943,0.15054,-0.10445,-0.43606,0.86477,1.1708,0.3547,0.099534,-0.46161,-0.487,-1.0992,0.15065,0.20151,1.1452,-0.64021,1.2984,-1.5839,0.25265,-0.053555,-0.028005,-0.15553,-0.61463,-0.079033,0.73726,-0.078977,0.53326,0.17617,-0.43615,-0.25759,1.2219,0.48231,-0.94617,-0.51271,-0.20661,0.12497,1.0433,-0.078941,-0.61462,-0.69116,0.96679,-0.61472,0.55867,0.45669,0.27815,1.0944,-1.4309,0.38014,0.43118,-0.43601,0.6098,-1.4818,-2.3747,1.1453,1.0177,0.25245,0.60961,0.099595,-0.46144,-0.23193,0.048487,0.60963
-0.053488,-0.18103,-0.18102,-0.078977,0.30362,0.68622,-0.69118,-0.51263,0.40566,1.0688,-0.23204,-0.12998,-0.13,-0.25756,0.27812,-0.12999,-0.15551,-0.002497,-0.079008,0.50769,-0.30854,-0.18099,-0.13,0.099546,0.048536,-0.10452,0.5842,-0.23203,0.074057,-0.027969,0.15057,0.074075,-0.38506,-0.15549,0.25261,-0.10452,1.0943,-0.15552,-0.76771,-0.56363,-0.10449,-0.027969,0.25261,0.45669,-0.35956,0.15059,0.43117,-0.25756,-0.30855,-0.33406,-0.10449,0.73725,0.17607,-0.0535,-0.38508,0.8393,-0.64017,-0.23202,-0.027956,-0.10449,-0.23203,0.2526,0.35463,-0.4616,0.86478,0.15057,-0.053488,-0.25754,-0.181,-0.28303,-0.078977,0.074087,0.023059,-0.027962,0.20158,0.12506,0.099546,0.09954,-0.002485,-0.053482,-0.1555,-0.48708,-0.053464,-0.027969,0.66074,-0.079014,-0.25756,-0.61465,0.40566,-0.48709,-0.51259,0.15059,0.43116,0.38016,-0.7932,0.58419,-0.41061,-0.027998,0.099546,0.023047,-0.20652,0.17609,0.074075,0.17611,0.023047,0.17609,-0.079008,-0.15553,0.63523,-0.53811,-0.46159,-0.20653,-0.078996,0.074057,0.17609,0.074044,0.048555,-0.1555,-0.1045,-0.13002,0.40566,-0.053458,1.2985,-0.74218,-0.15553,-0.23205,-0.23205,-0.23202,-0.10449,-0.078984,-0.48712,0.9413,-0.1555,-0.56364,0.22709,-0.13003,0.50768,0.27812,-0.10449,-0.51262,0.15058,-0.20652,0.76278,0.30364,-0.58914,-0.13002,-0.13001,-0.20652,0.099583,-0.13002,-0.23205,0.91582,-0.027974,-0.28306,0.048536,-0.30856,-0.51261,-0.002454,0.023041,0.45666,0.45666,-0.13,-0.41057,-0.30856,0.5332,0.27811,-0.15554,-0.002479,-0.4616,-0.58913,0.023059,0.48219,0.12507,-0.027962,0.023023,-0.23205,-0.25756,0.023035,0.50768,-0.28305,0.4567,0.48221,-0.23202,-0.15551,-0.15552,-0.079014,-0.18105,-0.027998,0.17609,-0.23203,-0.38505,-0.43609,-0.18101,0.48216,1.4004,-0.18102,-0.18103,-0.1045,-0.053488,-0.33409,-0.1045,-0.002443,0.25261,-0.10451,-0.15553,-0.15552,-0.002467,-0.078972,0.023041,-0.002479,0.023047,-0.027956,-0.13,0.40564,0.5587,0.048543,-0.33406,-0.53814,-0.23205,-0.053476,-0.02795,0.099552,0.074062,0.15059,0.27811,-0.46162,0.5332,-0.027969,-0.86973,-0.079002,-0.181,1.0944,0.30363,-0.33407,-0.5126,-0.027969,-0.079021,0.22709,-0.23203,-0.64015,1.579,0.12509,-0.79319,-0.13002,-0.1045,-0.05347,-0.35959,0.12505,0.20159,0.12509,0.2016,-0.027969,-0.053495,-0.053506,-0.002467,0.15059,0.074069,-0.078984,-0.002472,0.074057,-0.13,-0.13001,-0.38509,0.32914,0.2526,-0.66565,0.12507,0.43118,-0.41058,-0.027969,0.50768,-0.20652,0.20159,0.023059,-0.41058,-0.33409,-0.28308,1.2219,-0.15552,-0.64014,-0.41057,-0.18101,0.48217,0.15058,-0.078977,0.25262,0.074044,-0.33407,-0.002485,-0.28306,0.35465,0.86483,-0.30854,-0.1045,-0.002485,-0.20652,-0.46159,-0.027969,0.074051,-0.10452,0.099552,0.22709,0.32914,-0.23202,0.50769,-0.079014,-0.25756,-0.002472,-0.05347,-0.053476,0.12505,-0.10449,0.35465,-0.05347,-0.13001,-0.1045,0.023017,-0.053482,0.048549,-0.181,0.023065,-0.027956,-0.5126,0.71176,-0.38508,0.074044,0.023017,-0.76771,0.32913,-0.33405,-0.15549,1.3495,-0.61465,-0.51264,0.2781,0.38013,-0.053488,-0.13,-0.23203,0.099583,0.048567,0.12508,-0.027974,0.023017,0.22708,0.20158,-0.18103,-0.1555,-0.002472,-0.15551,-0.027987,-0.027974,-0.002479,-0.027974,-0.25755,0.50769,0.074075,-0.027969,-0.20653,-0.25754,0.50768,0.32913,-0.64015,-0.002461,-0.13001,-0.078977,0.074044,0.15058,-0.10448,-0.20652,0.023047,0.27812,0.48218,-0.23205,-0.20655,0.15056,0.30362,0.023047,-0.58914,0.68625,0.15057,-0.4616,-0.20651,0.099564,0.099559,0.074026,0.048536,-0.002461,-0.002467,-0.027969,0.048531,0.12507,0.15059,0.17609,-0.4871,0.023047,-0.15554,-0.02798,0.32913,-0.181,0.048555,0.048561,0.2271,-0.15552,-0.13001,-0.13,-0.05347,0.048531,0.15059,0.32912,-0.18104,0.048555,0.99236,-1.0483,0.27812,-0.053488,-0.13001,-0.079002,-0.027987,-0.25756,-0.10451,0.20158,0.32914,0.27813,0.12509,-0.027962,0.12508,-0.41059,0.12506,-0.41061,0.48219,-0.10449,-0.38506,-0.25754,0.074033,0.45666,-0.1045,-0.25753,0.12508,-0.078984,-0.15553,-0.078984,0.048561,0.048561,0.074057,0.048531,-0.18103,0.27812,-0.35956,0.60972,-0.20652,-0.3851,-0.1045,0.30363,-0.28304,0.58422,0.12505,0.68624,-0.81871,-0.38506,-0.20652,-0.12999,-0.002472,0.074038,0.074057,0.099552,0.048536,-0.15551,0.32915,0.023059,0.048555,0.099577,0.50769,-0.51263,-0.64017,-0.38508,0.12507,0.32914,0.25262,-0.002461,0.023029,-0.25754,0.55872,0.71177,-0.64017,-0.4361,-0.4361,-0.13003,-0.30856,0.78828,0.30364,-0.61463,0.73727,-0.53814,-0.23205,-0.0535,0.048543,0.023041,0.09957,0.099577,0.023041,0.1761,0.12508,-0.33407,0.6352,-0.18105,-0.18105,-0.58914,0.15059,0.63523,-0.43609,0.023035,0.048536,0.023029,0.023047,0.023035,-0.078984,0.12508,-0.027962,-0.13,-0.25754,0.023035,0.099546,0.48218,-0.1045,-0.18101,-0.23202,-0.053476,-0.078984,0.099546,0.17609,-0.23201,0.22712,-0.1045,-0.25756,-0.13001,0.91583,-0.74218,-0.28306,-0.002485,-0.20653,0.30366,0.50769,-0.027974,-0.10452,-0.078996,-0.002479,-0.053476,-0.05347,-0.027969,-0.35957,0.15057,0.074057,-0.38509,0.76278,-0.13001,0.099552,-0.20655,-0.48712,-0.18101,-0.002436,-0.053458,0.30363,0.12505,0.15057,0.023035,0.30363,-0.15552,-0.10451,-0.078984,0.048531,0.76278,-0.66566,-0.23203,0.048531,0.20158,-0.002472,0.17607,0.12507,-0.41059,-0.05347,0.38014,0.023047,-0.56362,0.66074,-0.20655,0.023017,-0.078984,-0.10449,-0.1045,0.45668,-0.28306,0.074062,-0.13001,-0.027956,-0.23203,0.35463,0.66071,-0.3851,-0.078984,-0.33404,-0.51261,0.68625,0.68623,-0.07899,-0.28305,-0.35959,-0.38508,-0.15551,0.40567,0.048573,0.023047,0.099564,-0.053476,0.12507,-0.079008,0.074044,0.12507,0.023047,-0.1045,-0.053488,0.023035,-0.002467,-0.078972,-0.002448,0.023035,0.023023,-0.079008,-0.078996,-0.002461,0.30364,0.17609,-0.07899,-0.18103,-0.15551,0.048543,0.71175,-0.078977,-0.15552,-0.15552,-0.002461,-0.027969,-0.53811,0.5587,-0.13002,-0.13002,0.09957,-0.15553,0.2016,0.30361,0.17609,0.40566,-1.4054,0.63522,0.023059,-0.69118,0.35464,0.32912,0.22708,-0.20653,0.2271,-0.28303,0.023047,0.68622,0.17607,0.60973,-0.13001,-0.20652,-0.10452,-1.3544,0.15059,0.074051,-0.30858,-0.89524,-0.64017,1.4004,0.83929,-0.181,2.0127,-0.41054,-2.2726,1.0433,1.1709,-0.20655,-1.533,0.048469,4.2063,-1.0994,-0.56362,-0.89517,-0.33406,-3.548,-1.1503,3.084,1.8598,-4.7468,-0.20653,3.696,-0.66584,0.99223,2.7779,1.6556,-2.0685,-1.8646,-4.0582,0.27803,8.7211,-1.0483,-2.2726,-2.6041,0.96685,1.7066,-1.8901,-5.7418,2.1146,6.4765,-0.99713,-0.20627,-2.6042,0.099632,-3.2676,1.3237,3.6961,-1.2779,-0.46169,0.40544,3.5431,-0.38483,-2.6294,-0.23185,1.1962,1.7574,-2.3749,-1.2523,-3.0121,-1.3799,3.7724,3.0329,-0.86962,0.25267,-1.3032,0.55873,-1.0228,-1.5329,-0.86984,0.32895,-0.028121,3.441,3.339,-1.4819,-0.28308,-1.0995,-0.38503,0.66098,-0.81815,-3.012,1.834,-0.053709,1.3492,1.6553,-1.4055,-1.4054,0.022883,4.4103,-1.5074,0.17622,-1.9409,-2.6297,1.7066,-0.027962,1.4515,1.2985,-1.5075,-1.2778,-1.1248,1.5789,1.4258,1.0686,0.073935,0.0741,-0.97137,-0.33382,-0.002412,-0.61469,-0.79335,0.25242,-0.002588,-0.43616,1.9106,-0.51257,-1.3543,0.12522,1.0434,-0.10448,1.2474,-0.53816,0.5076,-0.86978,-2.6806,1.5537,-0.56352,0.63533,-0.10466,1.5277,0.45652,-0.002516,-0.74218,-0.56365,0.27814,-0.30852,-0.027969,0.048555,-0.20647,-0.053329,1.5282,-0.92073,-1.2269,0.22704,0.7372,0.22713,0.60969,-0.30856,0.1506,-1.5839,-0.43607,0.048487,2.0636,0.76283,-0.46159,-0.81881,0.50766,0.53319,-0.48716,-0.35968,-0.48714,1.8597,-1.0737,0.3038,-0.71669,-1.2269,2.0126,-0.3851,1.1708,-0.15559,0.91593,-2.4765,0.50779,-0.97178,1.0433,1.0433,-0.74223,-1.635,-0.15553,-0.61471,0.66067,2.982,-1.1503,-1.3543,0.22711,0.25255,2.0891,-1.5074,-1.2269,-0.053415,0.12505,0.22713,0.35464,0.074111,0.04858,-1.1248,1.8596,-0.81878,0.048463,-0.28307,-0.81869,0.6863,1.0179,-0.89529,0.40558,-0.027987,0.45657,-0.48709,-1.3032,-0.002394,-0.23204,1.2219,-0.053568,0.58416,0.074093,0.94126,-1.0738,0.68635,-0.71659,-0.35953,0.48214,-0.25758,-1.5839,0.45667,1.2474,-0.56371,-0.41064,2.4973,-0.61467,-0.86966,-0.66549,-0.10431,-0.69118,0.68607,0.66055,-0.028103,0.81379,-0.56331,-1.3287,-1.0992,1.0942,2.4461,1.1707,0.12497,-1.1249,-0.56373,-0.28305,-1.4309,0.45681,-0.43596,0.63532,0.25266,0.099619,-0.5636,0.38012,-1.635,0.99229,1.9361,0.63516,-1.2779,-0.41056,0.81369,-0.81876,-0.69117,-0.25748,1.0434,0.66069,-1.1758,-0.15547,0.94134,0.68617,1.2473,-0.10451,-1.2522,-0.81868,-0.05358,-0.97172,1.3749,-0.1556,1.6045,-0.53814,0.074081,0.91574,-0.69114,-2.2979,-1.1245,0.023047,1.0942,1.3237,0.89011,-0.028066,0.048469,1.1709,-0.79316,-1.5584,0.6098,-0.002296,-1.2777,0.27817,0.63518,-0.5382,-0.10455,0.66062,-1.482,2.2422,1.7577,-1.5073,-0.8187,1.8086,-1.4564,-1.3798,-0.64014,0.20155,1.1453,1.8849,-0.18117,-0.66559,-0.078843,-0.38499,0.76281,-0.58912,-0.079045,0.55869,-0.053495,-0.23193,-1.9665,2.2167,-0.58916,-1.2523,-0.002307,-1.4054,0.96672,1.9361,0.17607,0.2526,-0.38513,-1.2268,-0.64018,1.1708,0.22698,0.43124,-0.48702,0.38027,-0.61465,0.43117,-0.94625,-1.8389,0.17613,0.81369,-0.05358,-0.10456,2.8289,0.38018,-1.0483,-0.79325,0.86483,-0.35947,-0.5891,-0.18095,0.02301,-0.20658,1.2983,0.35456,-0.23198,-1.0227,-0.28304,0.023029,1.477,0.15068,-0.58907,-1.5839,0.25256,0.048518,0.71168,0.76272,1.6045,-1.4819,-0.94617,-0.9971,0.17617,1.0178,1.5024,0.96677,-0.23206,-0.53818,1.0688,-0.13001,-1.6859,-0.6146,-0.33396,0.3801,0.25265,-0.64011,-0.43606,-0.56356,0.71171,0.22714,0.35448,1.1198,0.048506,-0.079002,0.15054,-0.64018,-0.12999,-1.2013,0.76281,0.30367,0.63528,0.048585,-0.66571,1.3749,-1.3798,0.40577,-1.0737,-0.181,-1.1503,0.50757,0.073935,0.15051,-0.002528,0.71185,0.5588,-1.0483,1.4515,0.023047,-0.51269,0.71172,-0.51267,-1.0483,0.099588,-0.5891,0.78829,-0.23204,-0.38509,0.81381,0.48213,0.35461,-0.41058,-0.027974,-0.76774,-0.35947,-0.30849,0.38018,0.50762,0.48199,0.45657,0.022998,-0.10444,0.55869,-1.5838,-0.46138,-0.33404,0.15052,0.78817,-0.33413,-0.30855,-0.33404,0.83933,-1.0992,0.048629,1.9616,-0.18109,-0.48711,-0.3086,0.45661,-0.13002,0.17603,-0.28306,0.32916,-0.58911,-1.1758,0.074075,0.66068,1.5025,-0.33412,-0.15551,0.25261,0.15058,-0.10455,-0.86969,-0.053402,-0.3341,2.0381,-0.71673,0.1506,-0.41058,-0.56368,-0.6402,0.45662,1.0689,-0.10438,-0.23201,-1.1248,0.55866,0.38007,0.12502,1.6555,-0.58915,-0.053525,-1.6349,-0.5891,0.15066,0.50774,-0.00251,0.30349,0.3035,-0.41058,0.78841,-0.41046,-0.30854,-0.35963,-0.48712,-0.6147,1.3494,-0.079106,-0.51267,-0.51249,-0.46145,2.931,0.7117,-1.2524,0.27805,-1.0739,-0.69122,-0.41056,-0.28296,-1.7113,0.30363,1.9616,0.53314,0.176,1.6555,0.17607,-0.053342,-0.92068,-0.89529,-0.33414,0.6352,-0.64011,-1.1247,1.1453,-0.79334,0.40558,-0.3595,-0.027871,1.1454,0.38006,-0.71674,-0.71666,0.86488,-0.92064,-0.1555,1.6555,1.5535,-1.2269,-0.6147,-0.69116,0.1251,0.35465,-0.46165,0.074033,0.32918,-0.58905,-0.23207,1.1453,-0.30863,0.53328,-1.9153,0.40562,0.38001,1.0687,0.25251,-0.28308,0.58427,-0.74214,-0.002467,-0.92072,1.1454,-1.6094,0.48218,-0.15545,-0.30846,-0.41055,1.9616,-0.20652,-0.079039,-0.35966,0.76274,-0.078996,-0.79317,-0.71671,0.58422,0.17615,-0.18103,-0.71673,1.4769,-0.25765,-0.61472,0.94136,-0.92059,-0.35949,0.53323,-1.737,-0.6657,1.8851,0.78833,-0.33408,-0.4616,0.30359,-0.23208,-0.43607,0.25267,-1.1249,0.12502,1.0178,-0.74216,-0.94613,1.2985,-0.15556,0.25257,-0.74218,0.63528,0.12504,0.55864,0.20151,-0.41058,-0.69119,-0.5126,-0.38494,1.0945,0.20157,-0.46162,0.48216,-0.97182,-0.58921,1.1198,0.048536,0.63527,-0.33403,-0.25748,-0.18099,-0.66569,0.38016,0.81373,0.3546,0.099559,-0.84424,-0.078947,0.22712,-1.2778,0.43125,0.17622,0.32915,-0.53826,-0.74233,-0.028103,1.0178,-0.10453,0.63523,0.32925,-0.94612,-2.4,-0.15539,0.73712,1.3748,0.48208,-0.002472,-0.15548,0.63534,-0.81866,1.7319,0.96676,-0.30854,-3.0633,-0.43608,-1.0228,-1.3034,1.732,0.94128,-0.1045,0.022986,0.15059,-0.12999,1.2475,-0.81873,0.76273,0.074038,-0.51263,1.477,-0.35951,-0.51264,-0.79329,-0.079033,-0.053476,-0.48711,-1.0228,-0.25756,0.53317,0.048604,-0.00232,0.099546,1.1708,0.3035,0.17607,-0.053366,0.27817,-0.79324,-1.0484,-0.53821,1.2474,2.3953,-1.6349,-0.53812,-1.0993,-0.078935,0.94136,-0.74214,-0.61462,-0.35954,0.22707,0.50763,0.4311,1.2218,0.99232,-0.4361,-1.2013,0.91578,-1.1503,-1.4054,0.89048,-1.9663,0.58414,0.53309,2.0125,0.048415,-0.74221,0.71176,-0.1555,0.023041,-0.53812,-0.23204,0.53326,-0.23201,-0.41058,-0.86964,0.5588,0.55872,-0.86978,0.15049,-0.48714,0.99239,-0.23201,0.20156,-0.79326,1.1198,-0.3596,-1.2268,1.6556,1.4771,-1.6094,-0.66573,0.073977,1.324,-0.43593,0.25271,-0.3341,-0.46162,-0.027993,-0.13007,-0.4362,0.22705,-0.99726,1.8086,-0.51261,0.40571,0.78823,-0.99732,1.2729,-0.38505,-1.4818,1.273,-0.61467,-0.66567,0.38011,-0.35969,-0.25762,-1.0738,0.89029,1.171,-0.20648,0.78828,-0.41059,-0.71674,-0.35962,-0.053482,-0.38503,0.074087,0.12509,0.20157,-0.6657,1.1454,-0.61449,-0.15547,0.40563,-0.053525,-0.30865,-0.13012,0.55861,0.45667,0.04861,0.023084,-0.10454,-0.25759,-0.027998,0.55875,-0.13,0.3291,-1.0483,-0.56365,-0.20651,1.324,-0.002472,-0.97177,-0.28302,0.30361,0.83933,-0.10451,-0.15557,0.71171,-0.25757,-1.0738,1.5025,-0.079026,-0.43617,-0.20652,-0.4106,-0.25748,0.53326,0.04858,-0.51266,-0.15557,0.6607,-0.18101,-0.13005,0.55869,-1.635,1.1454,0.15066,-0.15551,-0.74221,1.4259,0.38014,-0.35952,-1.0737,-0.84415,-0.28313,1.4514,-0.46164,0.89032,-1.3033,-0.10443,-0.10444,0.22707,0.53314,1.0943,0.94133,-0.86972,-0.61464,-0.56362,-0.97173,-0.58906,1.2219,0.48218,-0.15549,0.71176,0.15058,-1.4309,0.022968,-0.33409,-0.64016,0.32915,0.15059,0.25259,-0.35962,0.68618,0.40565,-0.30855,-0.232,2.3443,-0.6912,-1.686,-0.86972,0.68632,1.4771,-0.76766,-1.0483,0.38004,0.30353,0.02295,0.048512,-0.15548,-0.58899,-0.23196,0.12504,0.60964,-0.00254,1.4259,0.43118,-1.3799,-0.66569,0.99224,1.1199,-0.53807,1.4771,-1.7369,0.048494,1.0688,-1.431,-0.71675,-0.7167,0.099601,-0.12988,0.66072,0.55862,0.12505,0.30372,-0.027846,-0.30866,-0.46172,2.4717,0.73729,-0.56359,-0.25747,-1.2013,-0.76773,-1.5839,-0.41061,0.76276,1.9106,0.20166,0.50773,-0.86974,-0.41068,0.30356,-0.078928,-0.64003,0.48219,0.22697,0.4821,-0.028018,-0.35959,0.12505,-0.56362,0.35475,-0.71665,0.76279,0.6607,-0.28308,-0.64017,0.22704,1.3494,-0.28304,-0.89517,-0.20647,-0.38508,-1.4054,0.94129,0.78825,-0.56362,0.15062,0.30367,-0.46156,0.22707,0.53314,-0.35961,0.15054,0.073977,0.048525,0.5077,0.09965,0.20165,0.30366,-0.33407,0.12505,1.1198,-0.74223,-0.94626,0.32912,0.20159,-0.84413,-0.12998,-0.053495,-0.5891,-0.64012,0.55868,1.0943,1.3239,-0.38504,-0.12996,0.22712,-0.002558,0.27811,-0.5381,-0.43614,-0.92081,0.60971,-0.30856,-1.0737,0.38031,0.50785,-0.56355,0.32905,0.83918,0.35451,-0.10457,-0.181,-0.25751,-0.76768,1.0689,-0.078966,-0.13004,0.91577,-1.2524,0.43117,-0.48706,0.60976,0.7373,-2.0941,-1.941,2.8033,0.048458,0.32909,0.17611,-0.74223,0.3291,-0.8442,0.99243,-0.30843,-0.35954,-0.79324,-0.33416,0.35453,0.68619,-0.10452,-0.078928,0.12507,0.32912,0.023103,0.58425,-0.86969,-0.48701,-0.79312,0.58421,0.22701,1.0942,-1.7626,1.426,0.6353,-0.61461,-0.35959,-0.61467,-0.48717,0.48216,0.099559,-0.38505,0.48219,0.3036,-0.74221,0.43112,0.099588,0.83936,0.38031,-0.74221,0.71167,0.40557,-0.23198,-1.5328,0.12502,0.15056,-0.23203,-0.15549,-0.84419,1.5025,-0.51268,-0.15563,1.0688,0.5587,-0.23194,-0.7931,-0.61458,-0.35959,0.58416,0.40559,1.7066,-1.3799,-0.56359,0.48218,-0.53817,-0.69124,0.60973,0.89029,-0.053446,-0.74217,0.58423,0.074033,-0.23201,-1.0737,0.94125,-0.079075,0.074033,1.2474,0.27808,-0.94621,-0.33404,0.53326,-0.84417,-0.94625,1.732,0.96679,-0.81875,0.048543,-0.48713,-0.12998,-0.28302,-0.9972,-0.28293,0.76278,-0.2065,-0.079026,-0.10463,2.1401,0.35457,0.38011,0.73723,-0.89525,-0.51257,-0.76757,-1.6348,-0.38513,0.71168,0.86472,-0.078977,0.074136,-1.2523,-0.48715,0.022986,0.32913,0.73731,0.73733,0.38011,0.27803,-0.079088,0.48215,-0.33404,-0.53801,-0.69106,-0.41059,0.66067,-0.48718,0.78819,1.9106,-1.4308,-1.3288,-0.20646,1.477,-1.5838,-1.2523,-0.13018,1.2727,1.885,0.048573,-0.97174,1.0434,1.1965,-1.2779,-0.002491,-0.38513,-0.02795,-0.79313,-1.6349,0.73725,1.6555,-0.61465,0.53317,-0.4361,-0.41052,-0.002491,0.20163,-0.30855,0.40565,0.22709,-0.6912,2.5738,0.32913,-1.0993,-0.027998,-0.35958,-0.79321,-0.58915,-0.053451,-1.0993,0.60973,-0.027925,0.048531,1.0943,1.1198,-0.30851,-0.18094,-1.2777,0.12508,1.5534,0.43101,-1.0229,-0.23193,-1.2777,-0.81857,-0.053531,1.3238,-0.23216,0.53314,0.25263,-0.027876,0.5078,-0.181,0.02301,-1.788,0.25261,-0.20656,1.8341,1.0944,-0.20654,-0.64015,-0.76771,-0.41061,-0.97182,-0.35963,1.9106,0.83934,-0.86964,-0.56354,-0.15553,0.20149,0.35455,-0.15556,2.0382,-0.38495,-0.25759,-0.28316,0.53317,-0.48711,0.30363,-0.4361,-0.33405,-0.28297,-0.33396,0.4822,0.023035,-0.10452,-0.61469,-0.58919,0.25255,1.63,0.04858,-1.5072,-1.0735,0.78818,0.71155,0.22688,0.83915,0.38004,-0.76773,0.27818,-0.84409,0.15069,0.12508,0.27812,-0.002443,-0.25748,-0.56364,0.023041,1.3749,-0.84422,-0.20658,0.99228,0.45669,-0.25756,-0.41062,-1.0482,-0.33405,-0.30858,0.2781,0.96688,-0.66565,-0.46167,1.834,-0.25757,-0.97172,0.22715,-0.66557,-0.053372,1.0434,0.22697,-1.2268,-0.89518,1.783,0.17606,-0.002485,0.074026,0.68626,-0.81856,-1.5584,0.48211,-0.2321,0.99229,-1.3034,1.0179,-0.23204,0.81381,-0.41058,-0.3851,-0.66567,0.35464,-0.05347,-0.9462,-0.20649,0.38019,0.96676,0.17598,0.2781,-0.53804,-0.20649,1.3749,-0.25757,-1.5584,-0.28302,0.38004,0.50762,-0.002521,-0.20656,0.074062,0.63523,-0.2575,-0.20652,-1.0482,-1.3797,-0.002374,1.0178,0.78823,1.1709,1.9616,-0.74221,-1.3034,-0.69119,0.68617,-0.43614,-0.4106,1.0944,-0.66565,-0.053482,-0.48713,-0.74221,0.73728,-0.10447,0.35472,-0.56351,0.91586,-0.58918,0.17603,-0.053525,0.60962,0.50767,-0.66565,-0.20653,0.81377,-0.10452,-0.41057,-0.71665,1.2474,-0.86975,-0.20653,0.5332,-0.6146,-0.41058,-0.84422,1.528,-0.48707,0.048512,0.20154,-0.58913,-0.10452,0.048598,-0.25756,-0.53815,1.681,-0.33412,0.22709,-0.76764,-0.23202,1.681,-1.0228,0.048604,-0.51255,-0.5381,1.2474,0.25254,-0.69118,-0.25757,-0.18111,-0.35958,-0.4871,1.8851,0.68637,-0.35952,-1.0738,0.074002,0.99222,-0.00254,0.66074,-1.0226,-1.4053,1.0178,0.40561,0.25251,0.27806,-0.86972,0.1761,0.048549,0.48225,-0.078941,-0.86975,0.12504,0.35462,-0.64013,-0.12991,0.023145,1.3749,-0.33416,-0.53812,-0.02792,0.099601,-0.86977,-0.35964,0.78818,-0.79327,1.2474,-0.56363,0.25266,0.32915,0.12509,-0.53805,-0.94612,0.35466,-0.3341,-0.07907,1.8595,-0.5381,-0.20654,0.63522,0.048487,-0.89523,0.22721,-0.81859,0.68634,-0.7423,1.5788,0.27797,-0.20663,0.22715,-0.66557,-0.99719,-0.64011,-0.10444,-0.23205,2.2677,-1.0483,-0.15551,0.099564,1.6045,-0.79319,-0.13,-0.20648,-0.078966,-0.64018,0.81373,0.35458,-0.89521,-0.64009,-0.07899,0.53317,0.073989,1.4515,-0.8696,-1.4563,0.38009,1.0178,-0.2321,-0.69122,0.66072,0.099644,-0.56361,-1.2523,-0.10452,0.99229,0.30366,-0.48701,-0.76752,0.17622,0.074033,-0.23218,0.76264,0.9923,-0.69119,-0.20656,-0.81873,-1.0228,0.15063,1.3495,-0.46158,0.32915,-0.18101,-0.61464,0.023029,1.0688,-0.2321,-0.002461,0.27814,-0.20647,-0.43604,1.7576,0.22705,-0.10458,-1.1759,0.17604,-0.41056,-0.28302,-0.027962,-0.002423,0.3292,-0.35954,0.022998,0.60967,0.89023,0.27808,-0.3596,-0.61465,0.074142,-0.33396,-0.38506,0.4567,-0.15551,0.58411,-0.002558,0.73726,2.0637,-2.6297,-1.584,-0.86975,0.9668,1.5024,-0.15559,0.50763,0.50771,-0.35956,0.20164,-1.2778,0.099564,0.71175,0.15063,-0.81865,0.20157,0.53315,-0.58916,-0.078977,-0.33401,0.73728,0.30361,1.579,-1.0993,-0.7167,-0.43613,-0.25763,-0.053568,2.4463,-0.41054,-0.487,-1.4308,-0.33408,1.0688,0.022956,0.17598,0.4056,-0.69113,0.12523,0.32915,0.86477,0.58425,-2.0686,0.78824,-0.38514,-0.35964,-0.002436,-0.46154,0.71177,0.43115,-0.13003,0.81378,-0.027962,-1.2778,-0.76767,0.074051,-0.12998,0.25265,1.5535,0.60963,-0.53814,-0.76773,-0.69113,0.45673,0.55871,-0.56356,0.074106,-0.84427,-0.35964,0.89021,1.8851,-1.4309,0.32914,-0.53808,0.02309,-0.18094,-0.10445,-0.6147,0.4567,1.273,-1.8645,0.4821,0.12502,-0.028011,0.1505,0.20153,0.099675,-0.43588,-0.53798,0.12507,-0.053598,-0.71679,0.58419,1.936,-0.61474,0.45664,0.3802,0.89033,-0.8697,-0.89519,-0.61462,-0.51255,-0.53805,0.48219,0.50764,-0.18105,0.32912,-0.69116,0.38016,0.2271,0.78822,-0.58916,-0.99727,-0.35957,0.48221,0.83927,1.63,0.83929,-1.5073,-1.3542,-0.35961,-0.28319,1.6554,-1.0994,-0.41067,-0.13004,0.78832,-0.10436,-0.33391,0.94131,-0.2066,0.89027,-0.20656,0.048543,0.099577,0.3291,-0.61459,-1.1757,-0.94617,-0.25748,0.32917,0.86473,0.073946,0.50763,0.58417,-0.25757,0.7372,-0.51254,-1.7114,0.22708,0.27811,0.66074,-0.1555,-0.18109,-0.002461,0.048567,0.78836,-1.5838,-0.76764,0.048433,0.58408,1.2218,-0.15555,0.023023,1.4769,0.73723,-1.1503,1.0434,-1.5839,-0.053397,-1.1247,-0.35953,0.25257,0.66064,1.1198,-0.28306,0.76275,-0.10449,-0.28306,-0.5126,-0.053464,-0.28302,0.71179,0.25265,-0.41061,-0.1556,0.4311,0.1506,-1.2013,0.43115,-0.6657,2.3187,1.2219,-2.0686,-0.94619,0.89032,-0.23209,-0.10458,-0.12998,-0.30851,-0.436,0.50766,0.4056,1.528,-0.35961,-0.79324,-0.51259,0.66078,0.2527,0.17612,0.48212,-0.66572,-0.43613,-0.23206,0.074013,0.71165,1.3749,-0.46153,-1.0991,-1.0736,0.099619,0.27805,1.4513,0.45659,-0.28307,-0.28312,1.834,-0.69111,-0.7166,-0.232,-1.3798,-0.66566,0.53317,0.40566,0.12506,-0.94622,-0.053451,0.45666,-0.28307,0.12507,0.4312,0.02309,0.3036,0.50765,0.074013,-0.51265,0.68629,-0.53807,-0.86971,0.91581,-0.76779,-0.7933,0.27808,-0.23198,-0.053335,0.45676,0.63517,-0.41067,0.76269,-0.76766,-0.92064,0.9159,0.48215,0.048487,-0.43615,0.50766,-0.92074,2.2932,-0.66562,-0.81872,-0.71669,-0.07899
0.35458,0.074033,-0.30854,0.63524,-0.46158,-0.002454,-0.027969,-0.25756,-0.4106,0.81378,-0.078984,0.45666,0.048531,-0.25747,0.32904,0.023017,-0.41058,0.048561,0.25261,-0.15552,-0.33407,-0.07899,-0.053458,0.25261,0.20161,0.12508,0.20157,-0.23205,0.20157,0.2271,-0.28305,0.099595,0.5332,0.27809,-0.38509,-0.027962,-0.35957,-0.46159,-0.13,0.074057,0.17608,0.099564,-0.07899,0.023054,0.20158,0.15054,-0.078972,-0.027974,0.12506,-0.05347,0.22712,-0.33405,-0.20652,-0.18102,-0.30856,0.5587,-0.07899,-0.61464,0.15057,0.71175,-0.28306,-0.18101,0.25262,-0.10448,-0.25753,-0.053476,0.074057,0.20158,-0.13001,-0.027987,0.30363,-0.38508,-0.7677,0.81378,-0.10451,0.35466,0.048543,-0.002479,0.023023,-0.079008,-0.027993,-0.13002,-0.23203,0.27812,-0.25752,-0.41057,0.15059,0.20159,0.22709,0.15057,0.25259,0.023047,-0.18103,-0.33404,-0.053476,0.048555,0.099546,0.099564,-0.027962,-0.10449,-0.15551,0.048531,0.048531,0.074057,-0.10447,-0.15553,-0.15551,-0.05347,0.25259,0.35462,0.15057,-0.15549,-0.18101,-0.078984,0.12505,0.43116,-0.1045,-0.13002,-0.002467,-0.0535,0.02301,-0.1555,-0.12999,-0.078977,0.023059,0.25262,0.17607,-0.002467,0.22709,-0.027962,-0.1045,-0.33408,-0.20652,-0.002448,0.25262,0.17607,0.12507,-0.23202,-0.18103,-0.18105,-0.13001,-0.33405,0.63526,0.20161,-0.61465,-0.13002,0.023029,0.17609,0.048549,0.32913,-0.12999,-0.15551,0.048531,0.048555,0.099595,-0.12999,-0.002467,-0.13,-0.002485,0.30362,-0.053495,-0.43609,-0.33404,-0.15549,0.09957,0.099564,0.71176,0.023017,0.048536,0.023035,-0.23202,-0.30854,0.099559,0.074057,0.09957,-0.027974,-0.078977,-0.078972,0.048549,-0.027974,-0.13001,0.15057,0.17607,0.12508,-0.15551,-0.38507,-0.48712,0.78827,-0.61467,0.78827,0.76277,-0.66565,-0.181,-0.2065,-0.30854,-0.15549,0.099552,0.12507,0.023041,0.048525,0.099546,0.048555,-0.027969,-0.027962,-0.027969,-0.12999,-0.05347,-0.05347,-0.027962,0.023047,-0.027969,-0.20648,0.5076,-0.13002,-0.28303,-0.12999,-0.053458,0.048561,0.1761,0.074044,0.35462,-0.181,-0.053476,-0.15549,-0.10451,-0.02798,-0.078977,0.17607,0.023005,0.12504,-0.10449,-0.15546,0.27803,-0.33401,-0.20651,0.27808,0.074093,-0.027956,-0.30856,-0.0535,0.048549,0.32912,-0.027974,-0.13,0.20161,-0.078996,-0.20652,-0.10449,-0.027969,0.048536,-0.078996,0.15057,0.048543,0.023035,0.12507,-0.13,-0.28305,-0.18101,-0.28305,-0.027974,0.12507,0.048555,0.048549,0.099552,0.023047,-0.078972,0.15056,-0.027987,-0.181,-0.078977,0.023041,-0.078972,0.17611,-0.10449,-0.23203,-0.18102,-0.002467,0.17608,0.15056,0.20158,0.074038,-0.027969,0.074087,0.023047,-0.20652,-0.3851,0.074044,0.12507,0.099559,-0.05347,-0.10448,0.12508,-0.027969,0.2271,0.023029,0.12505,-0.15551,-0.15551,-0.20652,-0.15551,-0.18101,-0.1555,0.17607,0.074057,0.074069,-0.027962,-0.33405,0.40566,0.074044,0.09954,0.023029,-0.07899,-0.15552,-0.12999,0.074057,-0.027987,-0.002454,0.17607,0.32914,-0.28304,-0.74219,-0.002461,0.45666,-0.002454,-0.35956,0.12509,0.17609,0.20158,-0.002491,-0.02798,-0.078996,-0.2065,-0.181,-0.20649,0.12508,-0.002461,0.12505,0.15056,0.023017,-0.13,0.074057,0.15056,0.17609,-0.053451,-0.10448,-0.15552,0.12505,0.12507,-0.078972,-0.02798,-0.079008,-0.10449,-0.027974,-0.12998,0.048555,0.38014,0.40564,-0.15551,-0.20652,-0.13,-0.078977,-0.12999,-0.13001,-0.053476,0.023041,0.074062,0.048561,-0.053476,0.68623,-0.15552,-0.13001,-0.25755,-0.30856,0.2526,1.1454,-0.64018,-0.41061,0.2271,0.074044,-0.25756,-0.1045,-0.053476,-0.053464,-0.10447,-0.027969,0.17609,0.12507,0.20159,0.023035,-0.053482,-0.13,-0.13001,0.2781,-0.13,0.15057,-0.053495,0.048525,0.15057,-0.0535,-0.25757,0.15057,-0.078984,-0.002485,-0.1555,0.023047,0.25261,-0.10449,-0.027974,0.074044,0.074057,0.023023,0.023035,-0.027987,-0.027969,0.023047,-0.12999,-0.078984,-0.18102,0.27809,0.074044,0.32912,-0.18103,-0.053495,0.023029,-0.053476,0.099559,0.023035,0.074051,0.048531,-0.10451,-0.1045,0.074057,-0.05347,0.25262,0.074062,0.023035,0.023041,-0.002461,0.27809,-0.0535,-0.079002,0.27812,-0.20653,-0.33405,-0.46159,-0.078972,1.1709,-0.20655,0.074033,0.17606,0.023047,0.17609,-0.027969,-0.33406,-0.28303,-0.027974,0.023035,0.22708,0.17606,0.15055,-0.078996,-0.053488,-0.027987,-0.10449,0.048555,-0.002461,0.12507,-0.002461,0.32915,-0.1555,-0.30855,0.38016,-0.25753,-0.002461,-0.13,-0.027974,0.099552,0.17607,0.023017,0.12504,-0.3851,0.15059,0.048549,-0.10448,-0.12998,-0.10447,0.15057,0.17608,0.27809,0.074033,0.074033,-0.053488,-0.23204,-0.20652,0.023047,0.023047,-0.30422,-0.17668,-0.049139,-0.15117,-0.20652,0.12508,-0.053476,0.50768,-0.51263,0.15059,0.78829,-0.58912,-0.12998,-0.078984,-0.10449,-0.002472,-0.07899,0.12505,0.12507,-0.027962,-0.18102,0.55871,-0.078996,-0.10449,-0.1045,0.023047,-0.28303,-0.15552,0.048531,0.12507,-0.002467,0.12507,0.09957,0.09957,-0.027974,-0.13,-0.028005,0.3036,-0.10452,-0.027987,0.12505,-0.002454,0.17609,0.023047,-0.181,-0.10449,-0.10451,0.048525,0.17607,-0.10449,0.099559,0.43117,-0.05347,0.074062,0.15059,0.099564,-0.15552,-0.20653,-0.10449,0.074069,0.27814,-0.078972,-0.28302,-0.13001,-0.027969,0.023041,0.30362,0.099559,0.023035,-0.18101,-0.10449,-0.51261,0.43118,0.2526,-0.48713,-0.13,-0.20652,-0.07899,-0.002472,0.099552,-0.053495,0.73726,-0.078977,-0.10447,-0.20653,-0.053482,-0.0535,0.07402,-0.15551,-0.002448,0.17609,0.40565,-0.20652,-0.13001,-0.12999,-0.002467,0.17607,0.074038,0.099559,0.023059,-0.10448,-0.027974,0.048536,0.048536,-0.078996,-0.23201,-0.078977,0.30362,0.22708,-0.13002,-0.1045,-0.15549,0.099564,0.023041,0.09954,-0.002467,-0.35957,0.074075,0.074075,0.38018,-0.078972,-0.002436,-0.027956,-0.078972,0.023047,-0.002448,-0.10449,-0.053476,-0.053464,-0.027969,-0.027974,0.023047,-0.002467,-0.053495,-0.027993,-0.0535,-0.027993,0.48216,0.048536,-0.002479,-0.20655,0.15059,0.023047,-0.181,-0.33405,-0.23202,0.023047,0.32912,0.2526,0.12507,0.12504,0.30362,-0.15549,-0.12998,-0.181,0.074069,-0.10451,0.15057,-0.1045,-0.20652,-0.07899,0.25261,-0.078984,-0.027974,0.17609,-0.15553,0.3036,0.048536,0.89029,0.15057,-0.23205,-1.1758,0.53323,-0.46162,-0.079008,-0.66569,0.48218,1.7576,0.66075,-1.4819,-1.4054,1.8086,-0.7677,0.76275,-0.078959,-1.9155,0.35465,1.2728,0.12499,-0.35961,-0.23196,1.273,-1.2013,0.71172,-0.9463,1.2219,-0.0535,-0.9208,0.60967,-0.23204,0.66078,-1.1246,-1.7114,0.43125,0.1506,2.2166,1.2216,-0.69135,0.8393,-0.15544,-0.79315,-0.7167,-1.2524,0.25259,-0.30851,2.778,-2.2472,3.7726,-1.4563,-2.0684,-2.3493,2.7777,-5.0274,5.4564,0.78833,-1.1504,-2.5788,-4.6194,3.2625,-0.66588,0.12493,0.78827,1.2728,2.2932,-1.8644,-2.298,-0.56364,-0.5127,-0.69112,-1.8134,-0.6402,2.8547,1.2221,0.25256,-0.89533,2.3695,0.83886,0.048207,-0.053714,-1.2521,-2.6805,3.2372,-0.58881,0.58419,-1.431,-0.18112,-1.2524,-0.41067,1.2474,-0.28296,-1.0735,1.6304,-0.33403,-0.69133,-0.10469,0.68608,-0.61472,1.63,1.8084,0.27811,-0.2575,-0.30856,-0.76769,-0.66563,-0.53798,-1.8899,-1.1247,0.55881,-0.35953,-1.7625,4.3593,-1.9666,1.7574,-0.38522,-0.43621,1.2728,0.71171,-1.1503,0.074216,0.12514,-1.4819,1.0178,-0.41074,2.6503,-0.48705,0.25275,-0.69104,-1.9665,-0.79312,-0.64022,0.6861,0.32896,1.9869,0.76256,1.1964,-0.81863,-0.12991,-1.0226,-1.4052,-1.1247,1.3494,-0.97174,0.22725,-1.2268,-0.38525,0.58409,2.9563,-0.10458,-0.053544,-1.4564,2.5739,0.22716,-1.4054,-1.1758,-0.41057,0.60977,-0.61489,-0.66572,2.2422,-0.86969,-0.15551,-1.3543,-0.56361,1.5279,1.0943,0.2526,-0.3085,-0.92077,1.1197,0.27798,0.15057,-1.099,0.73749,-0.89528,-0.64014,-1.9156,1.2983,0.3802,0.58408,0.48214,-0.027974,1.3495,-2.0176,2.5739,-1.7114,0.78841,-1.8135,0.89028,-0.81871,-0.35962,-0.53823,-1.3544,-0.64018,1.2984,1.4515,-1.2269,0.73717,-0.81866,-0.20633,-0.8694,-0.079014,0.63503,0.83904,1.5024,0.63527,-0.589,-0.61468,-1.1504,-0.99727,-0.41051,0.35465,0.27812,1.273,-0.81866,0.15059,-1.2013,1.7576,0.63518,0.68624,-0.25751,-1.6604,0.15066,-0.86975,-1.1759,1.0178,3.0329,-1.0737,-1.2523,1.0688,-0.079093,0.02298,-0.5126,-1.3288,0.91588,1.4004,-0.20655,0.48218,0.71177,-1.5329,-0.79318,-0.43599,-0.33399,-0.18105,0.40562,0.099521,-0.35957,1.732,0.78824,-1.9155,0.04858,0.30377,-0.38495,-0.078972,-0.48714,-0.6147,0.89019,1.3749,0.60963,0.32899,0.86479,-2.7061,-0.30817,-0.43598,0.91571,-2.2218,1.4768,0.76268,0.48212,1.6555,-1.2778,-1.0482,-0.53804,0.68633,-0.12991,-1.2268,1.7575,0.68616,0.073989,-0.28309,0.048482,-0.027925,-1.7623,0.30374,1.4514,-0.33425,-0.51274,-0.15552,1.5281,-1.6349,-0.94629,0.8137,-0.028023,-0.18099,0.048689,-0.30847,0.25261,0.8137,0.023047,-0.46157,1.0433,-0.46165,2.1912,0.35464,-1.2523,-1.6349,0.76282,-0.3596,-0.58921,0.43108,-0.61474,0.60966,0.099608,0.22712,-1.0992,2.0892,0.12503,-1.2013,-0.53814,1.6045,-0.43608,-0.99729,0.50774,-1.6859,0.96681,-0.56359,0.71177,2.0637,0.45654,-0.46172,-0.61461,-1.0228,0.8393,-1.4819,-0.41054,1.324,0.73728,-0.84424,0.074033,-0.23204,-0.51249,0.2782,0.074062,-0.7167,-0.10466,1.8085,0.68617,0.58414,-0.61463,-0.81865,-1.0993,-0.33396,0.048634,-0.61471,-0.9973,-1.0738,0.45663,1.4004,1.8596,0.60977,-1.2778,1.7321,-1.2779,-1.3034,-0.5126,0.86485,0.20155,0.53315,0.074075,0.22721,-0.84408,-0.15563,-0.53818,-0.97173,-0.46155,0.073989,1.6554,0.50766,-0.53811,0.15064,1.3241,0.78824,-2.3236,-0.3341,0.45666,0.60969,0.20156,-0.41057,-0.28302,-0.02798,-0.79326,-0.30857,-0.51259,2.2422,0.17604,1.2729,-0.20656,-1.2523,0.30368,-0.38494,-0.81856,0.25255,0.30355,-0.56367,0.25258,0.86474,0.22705,1.8851,-1.7879,-0.79312,0.22708,1.1198,0.176,-0.027987,-0.64011,0.074136,-0.35955,0.6352,0.32905,0.60965,-1.7879,-0.92059,-0.078868,-0.25763,0.55861,1.4259,-1.0483,-0.027969,0.89027,-0.48707,-0.078941,2.0637,0.15066,-1.686,0.58414,-0.43621,-1.4053,-0.46162,-0.56366,1.3495,0.96685,0.35465,-0.74221,-0.2065,0.48222,0.78821,-0.28307,-1.3798,0.048647,-1.5073,-0.2321,1.2728,0.99223,0.66074,0.50772,-1.4054,0.60973,1.2474,-1.5839,0.68637,-0.25757,-0.053513,0.38019,-0.92069,0.35462,-0.48714,0.17604,0.27806,0.30362,-1.2268,1.1964,2.2678,-0.078977,0.73725,-1.7115,-0.76766,-0.48702,-0.86978,0.22705,0.55878,-0.69104,1.2219,-0.28314,-0.30863,-0.28315,0.81368,0.71179,-1.0738,-0.18105,1.0178,-0.053446,-0.10437,0.73731,-1.4309,-0.23203,0.40561,0.38005,-0.18108,0.15052,0.25254,0.94128,-1.1758,0.73737,-0.71656,-0.53805,-0.53821,0.58416,0.17606,0.15054,0.022998,-1.5075,-0.41059,1.579,-0.71665,3.0075,0.023035,-0.99727,-1.2267,-0.53812,0.25251,-0.002613,-0.28319,1.5534,-1.5073,0.099637,-0.002369,-0.58912,0.023072,0.78824,-0.028018,-1.0483,0.20156,0.43117,0.86488,1.4004,1.1709,-0.15555,-1.839,-1.6093,-1.4564,0.176,0.25248,0.94127,-0.64016,-0.53807,0.89029,0.68627,0.20162,-0.10455,-0.64017,0.94141,-2.3746,1.7831,-0.027931,0.60976,-0.74214,0.176,0.176,-0.15554,-0.48703,-1.0227,0.63516,0.22699,-0.30861,0.38013,0.58423,1.0179,-0.23202,0.45668,-1.1248,1.8086,1.426,-0.078843,-0.94605,-1.2015,0.25245,-0.10461,-2.4511,-0.64001,1.8596,-0.3086,0.58414,0.58415,-0.79325,0.91584,-0.92072,2.5483,0.83927,-0.41057,-1.5073,-1.2012,-0.20643,0.30365,-0.9973,1.7065,0.25261,0.023017,-0.6402,-0.38515,-1.1503,0.58422,0.58432,0.38016,-0.18103,-0.20663,-0.48716,0.32912,0.81377,1.2474,0.17613,-0.027993,-1.8901,-1.0482,1.069,-0.18088,-1.2778,0.4311,0.60961,0.73715,-0.33412,0.63519,1.4515,-0.053433,-1.2777,-0.97157,-1.2524,-0.71678,0.17596,1.6044,2.3952,-1.0738,-1.2268,0.78833,-0.64009,-0.97164,1.2219,1.2474,-0.66574,0.71169,-0.079002,-0.28309,-1.2268,0.25266,-0.41057,0.99237,-0.028029,0.048647,-0.89512,0.20161,-0.10457,0.04842,-0.13008,0.48219,-0.89517,-0.38504,1.324,0.3546,0.22707,-1.38,1.6555,0.22723,-0.69111,0.074075,-0.30856,0.40568,-0.97166,0.40557,0.43102,-0.10454,2.2168,0.3804,-1.3034,-0.86986,-1.533,-0.002491,0.07402,1.5025,-0.46164,-0.25759,-0.33401,-0.30849,-0.02792,-0.28298,0.96681,0.45664,-1.0483,1.528,0.15059,0.94134,-0.94631,0.20149,-1.0482,0.38023,-2.8592,0.50766,0.89021,-0.028047,0.02295,3.3645,-0.74223,-0.30852,-0.94619,0.023145,-0.35948,0.43118,1.4514,-0.51262,-0.078904,-1.2268,-0.38507,-0.66577,-0.51269,2.3187,-1.0738,-2.7063,0.91579,-0.25751,1.9107,0.17604,-0.18111,-0.43615,1.0945,0.023201,0.55876,-1.4819,0.76269,-0.10458,-0.89532,-0.05358,0.58418,-2.0686,0.81384,-0.28291,-0.56361,0.074044,1.7066,-0.5382,1.1453,-0.35956,-0.71663,0.81385,-0.25754,0.86471,-0.38514,-1.2779,1.1964,0.17612,-1.0737,-0.30852,-0.56367,0.15057,0.68622,0.76273,0.50765,-0.84417,-0.20636,-1.1502,-0.002577,0.45655,0.63512,0.99226,0.048518,-0.6656,1.1965,-0.76763,-1.0228,0.58413,-0.71676,2.0636,-0.66567,-1.2268,0.71179,-0.74218,0.1761,0.81378,-1.0483,-1.5839,-0.33396,-0.20655,1.2473,1.783,0.22707,-1.0738,-0.10441,-0.41054,-1.3289,-0.56366,0.43121,0.074167,0.43124,1.1709,-0.48724,1.6044,-0.28312,-0.18098,-0.63999,-0.69112,-0.027969,0.60966,0.15052,-0.76769,-0.79321,-0.35954,-0.35955,0.20163,-0.46144,-0.053317,0.60965,0.3035,1.2728,0.35458,0.35458,-1.3289,0.20167,0.83919,-0.81873,-0.46153,1.069,-1.3288,-0.56372,-0.3597,-0.46162,0.91586,1.0943,-0.41064,-1.0483,-0.027993,0.66071,1.6555,-0.94623,-0.02795,-0.078996,1.8341,1.7066,-1.7625,-0.38511,-0.58916,-0.64017,-0.8952,0.83934,-0.10449,-0.10454,0.7627,0.30362,-1.4817,-0.97165,0.40562,0.176,0.76264,1.2728,0.73723,0.99243,-2.4255,-1.8645,-0.10456,0.55866,-0.20646,-0.41056,2.038,0.60959,0.20157,0.40575,-0.283,0.58421,-2.9359,0.3291,0.45664,-0.33406,-0.20654,-0.99721,-0.078972,0.94137,0.53319,1.7065,2.3442,-1.482,-0.20652,0.48214,-1.0738,0.048604,-2.0175,-0.20638,0.40576,0.50768,-0.3851,-1.5584,1.6044,0.35443,1.4258,0.12499,-0.48713,-0.74206,-0.9716,-0.33403,-0.33404,0.48219,0.78825,-0.25753,0.91579,-0.23203,-0.053458,-0.33401,-0.25748,-1.2779,0.60965,1.681,-1.2269,-0.2064,-0.35944,0.30356,2.6502,-0.38514,-0.25756,0.12507,-0.10449,-1.3798,0.60979,-1.2268,0.48216,0.22704,-0.30856,0.9414,-0.58902,0.074038,-0.81876,0.96679,1.0688,-1.1504,2.2932,-1.3798,-0.99727,-0.48713,0.25267,-0.15538,-1.0737,0.83927,1.3749,2.1911,0.25249,-0.76772,-2.3491,-1.0736,-1.0992,0.5332,0.12497,0.55856,0.50759,0.48219,0.63525,-0.46157,0.48218,0.38013,0.17607,0.32915,-1.686,1.681,-0.76771,-0.25754,0.91586,-1.3288,-0.13003,-0.25757,-0.35959,1.1199,-0.20655,-0.35961,-0.053555,0.58413,1.2475,-0.97157,0.30372,-1.7625,-0.74223,1.4769,2.0126,0.3291,-1.2014,-2.0431,-1.4054,0.35468,0.4821,-0.28305,-0.28303,0.99241,-0.18099,0.35467,2.2421,2.089,-0.2066,-3.3694,-0.58911,0.2781,0.43115,0.17608,-0.15548,-0.79321,0.48225,-0.84412,-0.48713,0.99225,0.83921,0.86478,-0.86966,-0.33394,0.43121,1.1198,-1.0994,-0.69125,0.32909,0.15053,0.25263,-0.74209,1.2474,0.89024,-1.5328,-0.58904,-0.30849,-1.2779,0.38005,1.3239,0.27812,-0.51258,0.32922,-1.2268,-0.43604,0.58413,0.86473,2.1146,-1.2779,-1.839,-0.38503,1.4515,0.7882,1.0433,-0.10452,0.43119,-1.9409,-1.3543,0.023108,-0.028054,-0.18116,1.3751,0.023078,0.38008,-0.51267,2.0126,-0.20661,-0.15552,0.53321,-1.0737,-0.6911,-0.71673,0.48213,1.477,-1.5329,0.89039,0.43127,-0.58911,0.32907,-0.28322,-0.48727,0.99231,1.5026,-1.1502,-0.3594,-0.6402,-0.33413,0.30354,-0.61472,1.2984,1.8341,-0.64009,-0.15549,-0.35956,-0.35965,-0.38517,0.60979,-0.002338,-1.4308,0.73732,2.2421,-0.51274,-0.10457,-0.30866,-0.35965,0.073989,0.60973,-0.74205,-0.10448,1.528,-0.43612,0.96683,-0.10449,-0.35956,-0.3851,-1.3798,0.45672,0.48218,-1.482,1.732,0.073971,-1.2268,1.0434,1.2475,-0.99721,-0.69119,0.78826,-1.8136,2.9308,-0.028011,-1.2778,-0.25743,-0.02792,-0.48703,1.1964,-0.74219,-1.1504,2.7012,-0.9209,0.27802,-0.18107,0.1251,0.25266,-0.74209,-0.35949,-0.053439,0.25262,-0.51268,1.0688,-0.38513,-0.25754,-1.5838,-1.0736,0.43118,2.8033,1.1452,0.40554,-0.66578,-0.23207,0.023047,-1.7622,-1.1756,0.63517,0.68613,-0.028066,1.1198,0.76272,0.35462,-1.1503,-0.6401,-1.0227,0.89039,1.0689,-0.33409,-1.1248,-0.25753,0.15069,-3.3182,3.237,-0.38527,0.45656,0.96659,-0.23218,0.25259,-0.38499,-1.0737,0.40569,0.25263,0.53314,-0.56366,-0.92076,-0.18086,1.8086,-0.53819,-0.13002,-0.94628,0.89033,-0.078928,0.68621,0.40562,-0.41059,-0.92078,-0.15556,0.48217,0.17614,0.30369,0.94124,-1.584,-0.69113,-1.0736,0.32923,1.4258,0.22701,0.66069,0.25254,-0.84425,1.0434,-0.76761,0.22708,-0.30863,0.96677,-0.81861,-0.9972,-0.436,0.074062,0.78822,-0.30858,0.53319,0.63515,-0.94627,-1.635,-0.64015,0.66077,1.0434,1.3495,-0.43615,0.55867,-1.2779,0.35465,0.40557,0.60967,-1.8645,-0.56345,-1.5583,1.5535,1.3239,-0.38514,0.73726,-0.66569,-0.97177,0.27811,0.66072,1.4259,-0.41064,-1.2268,0.55873,0.27813,0.15066,-0.20649,-0.079026,-0.48719,-0.25753,-0.51257,0.78832,-0.25756,0.96677,0.50769,-1.5839,0.81375,1.0688,-0.53814,0.048487,-0.10449,-0.053397,-0.078947,-1.6604,0.12504,0.099534,0.78824,1.2729,0.78819,0.53317,-1.6859,-0.38494,-1.1502,-0.078966,0.55869,0.43104,-0.002565,0.73714,0.55862,-1.4818,0.58432,0.15068,0.63529,-0.5637,-0.002552,0.20155,-1.3799,0.4822,0.78828,-0.94622,-0.99727,2.2678,-0.66569,0.63522,0.45661,-1.8391,-0.61465,-1.6349,0.07416,0.27815,0.71176,0.40558,-0.15551,0.45669,0.27816,-0.079039,-0.053616,1.7574,0.83921,-0.078984,-0.71663,-0.538,-1.0736,-0.86963,-0.18103,0.25256,0.023047,0.20149,0.27806,-0.1045,0.48214,0.58421,1.0178,1.3494,-1.4819,-1.6858,0.73747,0.81385,-0.41071,-0.079148,1.1962,-0.53825,-0.23204,0.55877,-0.71657,-1.1246,-0.15548,0.71168,0.35458,0.53315,0.1251,0.4312,-0.28306,-0.48713,-1.9666,2.7269,2.7268,-1.737,0.81377,-1.1758,-0.66569,0.1506,-0.53807,-0.66565,-0.23204,1.0944,0.048714,0.38011,0.073922,0.66062,0.048409,0.176,-0.33404,-1.2522,0.32925,1.1708,0.53312,-0.3851,-0.71663,0.48221,0.12505,-0.53809,-0.33404,-0.181,0.35462,-0.028018,0.17605,-0.13002,-0.28306,1.273,-0.76766,-0.35956,-0.079014,0.022968,-0.38513,3.2371,-0.51256,-2.1196,1.6555,-0.30863,-0.86975,-1.1503,1.018,-0.58907,-0.43613,0.58413,1.2983,0.22707,-2.0176,0.71177,-0.053402,1.2475,0.17612,-0.58905,-1.9665,-1.1759,1.2984,0.9412,-0.76785,0.55864,0.55872,0.45681,-0.8184,-1.3288,0.63507,0.2779,-0.23222,-0.18114,0.12508,1.2475,1.069,-0.69113,0.71177,-1.584,1.0944,0.30363,-1.2267,-0.51248,-0.02792,0.94139,-0.56367,1.2984,-0.76767,-1.9665,1.1963,-0.41068,0.78812,1.783,0.45671,-1.0736,-1.0737,0.35467,0.22705,-1.0738,0.86475,1.5535,-0.99722,-0.92058,-0.41058,-0.23213,0.66068,0.074038,0.27805,0.17604,-0.13002,0.81377,-0.53818,-0.28306,0.30372,0.048634,-1.0738,0.25259,0.83923,0.35461,0.48221,-0.30851,-0.84419,-0.79317,1.2219,0.2271,-0.66564,1.3239,-1.1504,-0.5382,0.81387,1.3239,-0.38504,-0.0535,-0.69118,-0.41058,0.45659,-0.7423,0.68623,0.023047,-2.0175,2.7524,0.48218,0.22712,-0.51261,-0.002467,-0.25749,-0.33398,-1.1758,-0.56365,1.5534,0.71165,-0.51268,0.73723,-1.5328,0.15062,-0.12999,-0.46159,1.6044,0.99224,-0.25756,-0.9206,0.50786,-0.15556,0.32904,-1.4564,-0.46154,0.78835,-0.64021,2.5483,-0.3341,0.43107,-0.079051,-0.53822,0.023035,-0.30849,-0.69106,-0.18101,0.6607,-0.79326,0.73728,0.38024,-0.33411,-0.94632,1.4769,-0.92079,1.8341,-0.12994,-0.92072,0.43124,-1.2013,-0.58917,-1.2014,0.38006,1.4259,0.30366,-0.66565,-0.56363,0.76275,-0.51267,0.2526,0.68625,-0.15548,-0.46151,0.02309,0.27812,-0.028011,0.96677,-0.61467,0.073971,0.55866,-0.71663,-0.81861,0.12514,0.83921,-0.74229,-1.1504,1.3495,-0.43603,0.66067,1.3239,1.4005,-1.6604,0.15072,-1.0992,-0.97171,-0.028072,0.96665,0.53307,1.681,-0.30857,-0.4361,-0.20649,-0.23199,-1.6859,1.2984,-0.1045,0.048585,-0.28289,0.35477,-0.92084,2.2166,0.20148,-0.51269,-0.92065,-1.0992,-0.69115,-0.078947,1.6045,0.78821,0.45659,0.40559,0.17608,-0.46158,0.2527,0.20168,-1.4054,0.48219,-0.35957,0.86477,-0.079039,-1.0482,-0.25747,0.45677,0.73721,-0.38506,-0.53815,-1.0228,0.32912,0.40561,-0.53821,1.1964,0.66068,2.4972,-1.0228,-0.56363,-0.35943,-1.4817,0.43115,0.40559,-0.33411,0.023127,-1.1247,1.5535,-0.079093,-0.1301,-0.053537,-0.28303,2.3698,-1.1503,-0.48712,0.89038,-0.84425,-0.2066,-0.86977,-0.15551,-0.12998,1.9362,-1.686,0.50774,0.50771,-0.33408,-0.28313,-0.02809,0.048445,2.3953,-3.1396,0.45684,-0.3596,0.27797,-0.13014,1.0943,1.8595,-1.839,1.1454,-0.23203,-1.3798,-0.92067,0.099668,-0.56359,0.099564,-0.23207,-0.46168,2.2166,0.48219,-1.7368,0.6099,1.4516,-0.79326,-0.48723,-0.41072,0.35448,-0.07913,-0.079051,0.73729,0.32926,-0.94616,-0.053451,1.1964,0.68624,-0.71669,-1.1503,-0.64018,1.0943,0.50769,-0.46157,-1.1758,0.43112,0.50769,0.09976,-1.5073,0.94124,-0.25772,0.71159,1.7319,0.71165,0.074062,-0.10443,-0.35947,-0.64015,-1.7625,0.43122,-0.76767,0.35465,0.58417,0.58419,-0.25754,-0.15549,-0.35946,-0.84412,1.1454,0.73717,0.86466,-0.89533,-0.15557,0.15056,0.71176,0.30368,-0.38503,-0.2065,-0.078996,-0.23198,-1.9154,0.048653,0.38016,-0.53821,0.43105,1.4004,-0.64011,-0.64015,0.78823,-1.0738,0.81381,0.55865,0.58415,-0.33407,-0.51252,-0.53804,-0.69118,1.0943,1.0688,-0.28301,-1.0482,-0.46155,-0.15561,-0.15562,2.1911,0.25257,0.2271,-0.41059,-0.66556,-1.6603,-0.20646,1.5025,0.89022,1.2474,-0.51265,-1.635,-0.35954,-0.23201,0.99234,-0.48717,-0.69127,-0.002552,0.20149,-0.10448,-0.078904,-0.4615,0.07416,-0.02792,0.40558,0.58416,-0.30863,-1.2525,1.834,1.0433,0.81375,-0.13002,-0.8442,-1.0227,-0.28301,-0.97163,-0.027827,-0.33411,1.0688,0.023023,0.76275,-0.74227,-1.6095,0.83927,3.4922,-0.86954,-1.6094,-1.4309,-1.0739,1.0943,0.81371,0.15052,0.53315,1.9871,0.68622,-1.5839,-0.28303,1.0179,-1.0738,-1.941,0.76292,-0.48706,0.50768,0.91572,-0.35972,0.176,0.48214,0.45674,-0.20652,0.074013,-0.64016,-0.69121,0.38008,1.732,0.074044,-1.0737,-0.99716,0.048531,0.68619,0.83927,0.099546,1.1453,2.0636,-3.9816,-1.5327,-3.3692,1.6046,3.2368,0.9921,-0.81888,0.12497,1.5025,-0.86975
-0.053506,0.023035,-0.027969,-0.12999,0.048555,0.023029,0.048555,-0.078966,-0.027956,-0.18102,-0.002479,0.12507,-0.002479,-0.13,-0.12999,0.023054,-0.053458,-0.2065,-0.15549,-0.078977,0.12509,0.074062,0.53318,0.40566,-0.56363,-0.41059,-0.23202,-0.35956,-0.027987,-0.002485,0.60969,0.17607,0.02301,-0.02798,0.074062,-0.027962,-0.12999,-0.078984,0.15057,0.20159,-0.05347,-0.20652,0.099559,-0.1045,-0.027974,-0.027987,0.023047,0.32913,-0.20653,-0.13002,-0.23203,-0.002472,-0.13,-0.053476,-0.027956,0.71175,0.09957,-0.002461,0.023035,-0.28306,-0.35959,-0.28306,-0.002497,0.048531,0.27811,0.17607,-0.078984,-0.10449,-0.053482,-0.10449,0.099564,0.15057,-0.027987,-0.30855,-0.002461,0.12508,0.12508,-0.15551,0.12508,-0.25754,-0.51262,0.30362,-0.002479,0.32914,-0.20653,-0.23204,-0.30854,0.25263,0.27814,0.35465,-0.15549,0.074069,-0.15553,-0.078996,-0.23204,0.25259,-0.002467,0.20159,-0.13002,-0.18104,-0.18104,-0.002472,0.43115,0.60972,-0.1555,-0.33405,-0.15549,-0.027962,0.074057,-0.38509,0.048531,0.22708,0.43116,0.023041,-0.12998,-0.25754,-0.13,0.8393,-0.002461,-0.10452,-0.079008,-0.027998,0.048536,-0.002472,0.048561,-0.10449,0.023047,0.048561,0.35463,-0.28305,-0.05347,0.60973,0.17607,-0.25756,-0.20653,-0.25754,-0.28303,-0.1555,0.074044,0.074044,0.048555,0.048543,-0.027969,0.023035,0.89031,0.12505,-0.18101,-0.13,-0.20652,-0.10449,-0.18101,-0.25754,0.25261,-0.053495,0.35464,0.048536,-0.13002,-0.15552,0.048536,-0.23205,-0.23205,-0.053476,0.76277,0.45667,-0.10449,-0.078977,-0.25752,-0.23202,-0.12999,-0.002454,0.048567,-0.002454,0.023029,-0.13001,-0.053476,0.6097,0.17608,-0.18103,-0.25756,-0.30856,-0.15551,0.66074,0.074069,-0.33406,0.023029,0.074051,0.023035,-0.13001,0.27811,-0.0535,-0.25755,-0.053495,-0.15552,0.27811,-0.053482,0.15058,-0.23203,-0.13,0.023047,-0.15551,-0.13,0.60971,0.83928,-0.18103,-0.58912,-0.10448,-0.20651,-0.30855,0.099559,-0.10452,-0.15554,0.35462,0.048525,-0.002485,-0.053495,0.023029,0.35463,0.40566,-0.053488,-0.15552,-0.28305,0.22712,-0.15551,-0.053464,-0.10449,-0.13001,0.023035,-0.002479,0.099559,0.12505,-0.10449,0.023035,0.15058,0.22711,0.12505,0.023029,0.22711,-0.30853,-0.30855,-0.28303,-0.25754,0.099546,0.25258,0.12509,0.58423,-0.1045,-0.48711,0.2271,0.20159,-0.13002,-0.25754,-0.28304,-0.10449,-0.07899,0.17607,0.099546,0.048555,0.048561,0.074069,0.023059,-0.07899,-0.053495,0.3036,0.27809,-0.15551,0.074033,0.074069,-0.41057,-0.078972,0.17609,-0.20654,-0.20655,0.63521,0.30363,-0.28304,-0.33405,-0.25752,-0.12999,0.074062,0.27811,-0.079008,-0.002491,0.12504,0.023041,0.15058,0.12508,-0.002443,-0.078959,-0.13,-0.10449,0.048531,0.099546,0.099559,0.074051,-0.078972,-0.078977,-0.56363,-0.69116,0.63521,1.3749,0.25259,0.30361,-0.41059,-0.86972,-0.69117,-0.41058,-0.25753,-0.078977,0.17608,0.27811,0.30362,0.15058,0.09957,0.20158,0.30361,0.20158,0.074062,-0.18099,-0.078984,-0.18102,-0.002485,-0.002472,0.023035,-0.002479,-0.027969,-0.10448,-0.12999,-0.23203,-0.51262,0.43118,0.73726,0.074062,-0.25754,0.27812,0.17609,-0.48712,-0.48711,-0.38508,-0.079002,-0.002479,0.048531,0.15056,0.20157,0.20158,0.15057,0.17609,0.17609,-0.078984,0.12509,-0.078972,-0.15551,-0.13001,-0.20655,-0.18103,-0.1045,0.71177,0.023047,-0.41057,0.2016,-0.13002,-0.41059,-0.35956,-0.1045,0.68624,0.27812,0.17608,-0.3851,-0.28305,0.099577,-0.02798,-0.1045,0.023041,-0.002461,0.35463,-0.13001,0.099559,-0.027993,-0.10449,-0.181,-0.027974,-0.02798,-0.078984,0.2271,0.38016,-0.027962,-0.181,0.60974,-0.28305,-0.43609,-0.13002,-0.20655,-0.002479,0.048543,0.43117,0.30363,0.50769,-0.20651,-0.33404,-0.15551,-0.23202,-0.23204,-0.10451,0.22707,0.30361,0.2271,-0.027987,-0.07899,-0.18101,0.45667,-0.13001,-0.23202,-0.1555,-0.15551,0.38016,-0.23201,0.20159,0.2016,-0.1555,-0.20653,-0.053495,-0.13002,-0.0535,-0.13002,0.35462,0.2781,-0.10449,0.074062,0.17609,-0.15551,0.023041,0.2526,-0.1555,-0.28305,-0.1555,0.32914,-0.002461,-0.10452,-0.053495,0.023035,-0.07899,-0.18101,0.099564,0.15059,-0.05347,0.048549,0.17609,-0.35957,0.40565,0.30361,-0.15553,-0.41058,-0.15553,-0.079002,-0.10449,-0.053476,-0.078984,-0.10449,0.023047,0.17609,1.0178,-0.30856,-0.35959,-0.23206,-0.15554,-0.053488,0.074051,0.074038,-0.12999,-0.053495,0.17607,-0.07899,0.12505,0.27811,-0.02798,-0.28306,-0.15551,-0.12999,-0.12999,-0.053476,0.023023,-0.13002,0.17607,-0.13004,0.12507,-0.053476,0.09957,-0.15551,-0.20652,-0.02798,0.15057,-0.15551,0.35463,-0.10452,-0.053488,0.099564,0.20161,-0.18099,-0.15549,0.1232,0.072198,0.30363,-0.02798,-0.25757,0.35463,0.048549,-0.20652,-0.078984,-0.053458,0.048567,0.023059,0.048567,-0.027962,-0.078984,-0.078972,0.099564,-0.027969,-0.10447,-0.078984,-0.078972,0.1251,0.048561,-0.15552,-0.13001,-0.1045,0.023041,-0.002454,0.023065,-0.053458,-0.053451,0.22712,0.27813,-0.1555,-0.13,-0.10448,-0.1555,0.048561,0.1506,0.22712,0.09957,-0.25754,-0.15551,-0.002472,-0.079014,-0.0535,-0.0535,0.50768,-0.078996,0.2271,0.15056,-0.15553,-0.15553,-0.23205,-0.13002,-0.10452,-0.002485,0.12508,0.45667,-0.20652,0.023047,0.023041,-0.053476,-0.02798,-0.002479,-0.1045,-0.053482,-0.13001,-0.13,0.023035,0.023035,0.09954,-0.07899,-0.25754,-0.20652,-0.181,1.0178,0.15058,-0.20654,-0.38508,-0.25753,-0.23201,-0.1045,0.074051,0.66072,0.30362,0.40566,-0.30855,-0.38508,-0.15553,0.023023,0.048536,0.048536,0.12507,-0.1045,-0.053482,-0.027969,-0.002467,0.09957,-0.027938,-0.002436,-0.12999,0.048567,0.048536,0.023035,-0.002472,-0.078984,-0.15551,-0.078984,0.2016,0.50767,0.048536,-0.23205,-0.18104,-0.002491,0.048531,0.048543,-0.078996,-0.027987,0.023023,0.099552,0.048543,-0.07899,0.074051,0.048555,0.074062,-0.053458,0.023059,0.048561,-0.10449,-0.25753,-0.28305,0.12505,0.99231,0.12506,-0.28305,-0.48709,-0.53811,-0.35957,-0.13,-0.002472,0.2781,0.27811,0.58422,-0.25754,-0.35956,-0.15551,0.5332,-0.002461,-0.002479,-0.13002,-0.10451,-0.027974,0.048549,-0.078996,-0.078996,0.023041,0.023059,0.30364,0.32916,-0.33405,-0.18103,-0.002479,-0.079014,0.20158,0.86478,1.2219,-1.4309,-0.71669,0.53318,-1.0993,-0.64017,1.1454,1.273,0.50768,-1.0483,0.40564,-0.10455,-2.8083,-0.69115,-0.7677,3.7727,0.048561,-1.2268,4.3848,-3.038,0.099521,4.1298,-6.3029,3.135,-4.2622,0.63525,1.4004,-1.5839,-0.53815,0.09957,1.8851,2.1147,-4.9764,1.324,3.5431,-1.0994,2.8543,-0.53819,-3.7775,-1.9409,1.1199,-0.81881,2.3952,-0.053665,0.07394,-3.191,-0.18094,4.4871,-1.7367,-0.30824,0.48236,-1.2524,-1.3802,2.2162,0.81333,3.1347,-0.10455,-1.048,-3.5987,-0.71644,-1.3798,-0.23205,-1.2269,-0.10436,0.53333,4.4104,3.1095,-1.7372,-2.0176,-1.3288,-4.1602,1.1197,1.9614,-0.92099,1.4003,0.86477,4.1554,-0.94617,-1.7879,-2.4001,-1.9666,3.1859,-1.5329,1.0945,-1.7876,-3.3435,0.17604,0.3288,3.8488,1.0175,-0.46163,-0.15528,-1.6604,-0.74207,0.02309,-0.53817,1.2983,0.63506,0.68614,-1.4563,-1.1757,-1.4817,2.3954,0.60974,1.2728,-1.7881,-1.0738,-1.5072,-0.89499,-0.64019,1.2473,-0.25776,3.8491,0.5585,0.25247,0.43124,-4.2618,2.1915,-1.584,-2.5788,0.12491,0.91564,1.5789,0.099552,-0.89518,0.12516,-0.81865,0.023054,-0.61465,1.9615,1.579,-0.84414,-1.4818,-0.92067,0.53321,-0.18108,0.4056,-0.74219,0.91571,0.43115,0.073922,0.50758,-1.2778,0.023163,0.20159,0.66069,-1.1249,2.4718,0.27817,-0.94617,0.17607,-0.48716,0.50768,-1.3288,0.4312,-1.0993,0.78819,0.63515,-0.64014,-2.4255,1.7321,-0.002503,1.2219,-0.99734,4.4103,-2.5532,-0.84422,-0.6402,-0.053568,0.81362,-0.15565,0.3547,-0.078739,-1.201,-0.20647,-0.079155,0.7626,1.0942,0.91575,0.27811,0.45669,-0.9717,-1.6859,-0.15544,0.30367,1.5535,1.1709,-1.5584,1.3239,-0.81877,-1.9665,-0.92071,-0.81865,1.1454,2.5992,0.91569,-0.86976,-0.92068,-0.232,0.9413,0.66068,-1.0738,0.96688,-1.4307,-0.35946,0.048592,0.022961,2.0381,-0.10455,-0.79318,-0.71666,-0.48712,0.50771,0.40576,0.023176,2.1148,-3.7521,-0.38515,0.99221,0.99225,0.71168,0.25263,0.099601,0.38008,-0.7422,-0.12993,-0.58898,-0.28293,0.58419,-0.76774,-0.15561,-0.71676,2.0381,0.35458,-0.97182,0.22705,-1.686,0.96691,0.27831,-0.43588,-0.35956,1.3494,0.60957,0.32905,-1.0228,-0.18106,1.6045,-1.0483,0.71176,-0.99716,-0.61458,0.81389,-0.53813,-0.58919,-0.33423,0.48206,0.02295,-0.48707,-1.0991,-0.25741,2.1657,-1.0738,1.2728,-0.20667,0.17601,0.81375,0.023041,-0.027956,-0.46157,0.63531,-0.97163,-2.5787,2.8544,-0.69117,1.2474,-1.5074,-0.61471,1.1453,0.048427,0.22704,-0.38495,0.20166,-0.5636,-0.41066,1.4769,0.20147,0.15052,0.27817,-1.1756,-0.2318,0.66068,0.7627,-0.71673,-0.1045,-0.8697,0.32915,-0.61465,1.375,-0.002461,-0.76775,-0.1811,0.35458,1.3495,-0.1555,-0.64014,-0.99727,-0.94627,1.6045,-0.23204,-0.002381,0.048555,-0.10461,0.40544,0.45654,-0.25751,-0.078825,0.12538,-1.0993,1.0687,0.073917,-0.38517,0.91582,-0.58905,-1.4818,-0.56367,0.96677,-0.41063,1.0434,0.15063,0.099552,-0.181,-0.48705,1.8341,-1.2778,1.3495,-0.99725,-1.6861,2.2677,-0.71671,-1.1503,0.15051,1.1709,-0.38504,0.73722,-0.94625,-1.0228,1.5025,-0.99721,0.83937,-0.71673,0.07402,-1.0483,1.375,-1.0737,-1.0992,0.99243,0.68622,-0.053592,-0.69125,0.30358,0.099564,-0.53811,0.099601,0.12509,1.0688,0.15055,-0.53815,-1.4309,2.6505,-1.9155,-0.1555,-0.053525,1.3749,0.27803,0.66063,-2.3746,-0.74201,-0.66567,0.32914,-0.3597,0.5586,0.66072,0.86481,0.96681,-0.13,-0.38502,-0.74221,1.2729,-0.64018,-0.84426,0.048585,0.48225,-0.23205,-0.48716,0.2781,0.68617,-0.64014,-0.8698,2.5483,1.528,-1.8389,0.22725,-0.10441,-0.48714,0.22696,-0.13008,-0.51257,-1.5329,1.681,1.528,0.30355,0.45661,-0.58909,-2.0174,-1.3796,1.4005,1.0177,-0.48724,0.45658,1.1454,-0.079008,-0.38508,-0.18098,-1.3798,-1.0737,2.2423,-0.15553,-0.46159,-0.9973,1.3749,0.81374,0.074087,-0.86971,-0.43609,-0.51257,0.30366,0.38006,1.2728,0.71163,0.66068,0.76274,0.22718,-1.4817,-0.94612,-0.33415,0.55862,-0.23201,0.50777,-1.0227,0.20156,0.099479,1.0178,0.022998,-0.48709,0.48219,0.074069,-0.5126,0.099601,-0.027993,0.40566,2.0382,-2.1451,-1.7115,1.6045,-0.10447,-1.1757,-0.66548,-1.2012,1.732,2.1655,0.048342,-0.30866,-0.5892,-0.13001,-0.2575,0.023145,-0.56356,0.63532,1.1455,-1.3033,0.0485,1.885,-0.43614,-0.69121,-0.79322,-0.20647,-0.33405,-0.58916,2.2932,1.4259,-0.10449,-1.737,-1.2778,0.99229,0.30366,-1.6094,0.25261,1.4004,1.0688,-0.48709,-0.027901,-0.30857,0.48209,0.66065,-0.053476,0.1506,0.71175,-0.56367,-0.7422,-0.76765,0.12508,-0.66563,0.68628,-0.12998,0.63524,-0.053495,-0.43613,-0.33405,-0.078977,1.4004,1.1453,1.2729,-0.48715,-1.0993,-0.92069,0.58425,-0.89529,-0.33412,-0.028072,0.78821,-0.25753,0.55867,-0.078996,0.45673,-1.0227,0.55879,-0.53807,0.81386,1.528,-0.13007,-1.38,2.0892,-1.7369,-0.35957,-0.61471,-0.2066,-0.48719,0.66072,-0.05347,0.81381,-0.07891,0.2527,1.7066,-1.8391,0.27805,0.022986,-0.25757,0.38012,-0.71673,-0.053531,-0.99721,0.17617,0.20156,-1.1758,1.1709,0.25261,0.12503,-0.35961,0.4311,0.048463,0.63523,-0.38503,0.15075,0.73735,0.30363,-1.533,0.63511,-0.61474,0.66067,-0.02798,0.048585,1.6046,-0.38504,-1.3033,-1.8135,1.5535,0.35465,0.20155,0.53321,0.30369,-0.38507,-0.38515,-0.13005,0.30365,-0.66557,0.099626,0.91571,0.83919,-0.33405,-0.79319,-0.38513,-0.28308,-0.079033,0.17611,0.20163,1.375,-1.0483,-0.053421,0.074075,-0.53816,0.20155,-1.7369,0.5843,1.4259,-0.51264,0.38006,-0.71666,-1.0482,0.5587,1.1453,-0.15558,-0.51264,-0.43612,1.1708,0.40568,-0.20639,-0.48703,-0.41054,-0.64011,0.66075,0.66067,-0.46163,-0.18108,-0.38509,-0.30858,0.99237,0.71188,0.45676,-1.788,0.68615,-0.25763,0.66068,0.43117,-0.58911,-0.053495,-0.053525,1.0943,1.5534,-0.64015,-2.145,-0.86967,-0.35958,0.17611,-0.18099,0.71175,0.27808,0.27815,0.76281,-0.283,-0.79324,0.15048,0.60966,-0.48712,2.8544,0.76266,-1.9921,-1.9153,-0.76744,0.20154,0.86475,-0.6403,0.60962,-0.61472,-0.3086,1.375,0.71181,-1.0993,-0.4871,-0.74218,-0.078947,0.04861,0.048518,1.579,0.89031,-0.28302,-1.5074,-0.97174,-0.58916,-0.48716,1.4259,0.40558,0.048549,-0.28302,-0.23205,-0.079021,0.048549,0.4822,-0.078917,-0.053495,0.8137,-0.33406,0.99237,-0.76763,-1.1247,-0.64014,-0.71671,-1.0994,1.3494,1.2729,0.48209,1.1454,-1.1502,0.58429,-1.2013,0.125,-0.35957,-1.3799,0.48211,0.30356,0.25259,0.27816,1.9106,0.99235,-0.35954,-1.3543,0.12519,-1.0738,0.20159,0.32905,0.25252,0.5078,0.074118,0.73715,-0.15557,-0.74223,-0.027969,-0.20653,-0.13002,-0.078923,0.43124,-1.1247,-0.41058,0.81373,1.6555,0.022998,-0.61473,-0.51268,0.15074,-0.9716,-0.76749,0.48226,-0.69129,0.71154,0.66047,1.8339,0.58416,-0.38497,-1.5071,-0.64004,0.3036,-0.69124,0.27808,-0.027998,0.099546,0.30364,0.30363,-0.94628,0.32921,0.60985,-0.8186,1.12,0.32908,0.32896,-0.5638,-0.30858,0.099534,-0.25752,0.48217,0.43113,-0.71663,-1.2268,-0.69095,-1.7368,1.1198,0.66058,0.78813,2.4207,0.83927,-0.15552,-1.4819,-1.7115,1.6301,-0.20644,-0.38504,-0.053495,0.27804,-1.2779,0.27815,-0.18098,0.048659,-0.2066,0.25249,1.2473,0.1506,1.1199,-0.02798,-1.2778,0.023065,0.048536,0.78823,0.89027,-1.4054,-1.6094,0.43129,0.38035,-0.97165,-0.20663,1.4513,1.0942,0.30352,-0.53812,-0.92069,1.8341,0.17616,-1.8645,0.074026,-1.0228,2.9819,-0.92071,-1.6349,2.1657,-0.25758,-1.5585,0.45666,0.27807,0.30358,0.53313,-0.12994,-0.20642,-0.66541,-1.8133,0.76261,1.5277,1.1706,-0.10463,-0.078923,-0.7165,-0.25745,1.6045,-0.43615,-1.0483,0.48217,-0.35961,-0.61468,-0.23207,0.58421,0.12513,-0.12998,-0.30854,0.17614,-0.053476,1.2219,0.35456,-0.84434,-0.41063,0.35479,-0.51227,-0.23192,0.32902,-0.028109,-0.46176,1.2983,0.43107,-0.027993,-0.53807,1.0944,-1.7879,-0.71657,-0.30846,-0.385,0.27825,0.43127,-0.15551,-0.58924,0.30353,1.0177,0.17608,0.048592,-0.23207,-0.4106,-0.3086,1.0943,0.48218,-1.6603,1.3496,0.2016,-1.584,-0.002534,1.7831,0.86482,1.8341,-1.4053,-2.9868,0.48213,-0.079026,-0.2575,-0.15545,-0.6147,0.6096,0.048409,1.2728,0.50762,-0.35957,-0.46153,-0.25745,0.40569,0.78823,0.40568,-0.74221,-0.79325,0.94134,0.048604,-1.4053,-1.1758,-0.079081,0.9667,1.6554,1.63,0.099528,-0.99726,-0.6402,-0.58909,0.35468,-0.53804,1.0945,-0.84419,0.1761,0.32912,-0.13004,0.48216,-0.053482,-0.078972,-0.43605,1.1709,-1.3544,1.0433,0.15062,-1.7367,-1.4306,-0.028096,0.27798,1.4769,0.22701,-0.002552,0.023047,1.171,-0.35951,-0.64003,0.023145,-0.66561,-1.2524,1.7064,0.78816,0.20152,0.53315,-0.41058,-1.1758,-0.69111,0.023103,-0.64006,0.40568,-0.18112,0.2015,0.7117,0.074069,1.2474,0.83927,-0.51264,-1.4308,-0.38495,-0.58902,-0.53816,0.58413,-0.28315,2.3187,0.38014,0.12501,-0.30858,-1.7879,-0.51255,-0.38508,0.40567,0.048567,-0.002491,1.2728,0.68622,-1.7115,0.94136,-0.18098,-0.053427,-0.027907,-0.43608,-0.13006,0.55855,1.2218,0.25249,0.7883,-0.1299,-0.66555,-2.8337,-0.5127,1.9616,0.07402,0.22713,-0.41051,0.58422,-0.002443,-1.1248,0.45664,0.22705,0.40561,-0.002461,0.89037,-0.81855,-1.0227,0.60965,0.048396,0.60962,-0.43617,-0.28309,0.5842,1.0434,-0.89517,-1.6349,-0.41049,1.3495,-1.0738,0.15057,1.6301,0.22712,-0.30865,-0.28309,-0.23208,0.074002,-0.20652,-0.027969,-0.38502,-0.30855,0.38008,0.45659,0.50769,-0.10451,-0.078984,0.099608,0.40574,-0.69111,-0.15554,0.22706,0.99235,-0.84419,-0.92079,0.4311,-0.079045,0.63518,-0.74217,1.9872,0.68627,-0.79321,-0.41061,-0.64011,-0.97166,-0.38513,-0.30863,0.96678,0.96684,1.2219,0.32911,-0.81869,-0.35955,-0.48713,0.81371,0.91573,-1.0738,-0.23193,-0.71653,-0.74212,-1.0227,-0.028011,1.5789,1.1197,-0.41066,-0.18099,-0.41047,-0.027889,1.1964,1.9616,-1.0994,-0.30858,-0.97177,-0.61471,0.25259,-0.002497,-0.33401,0.27824,0.048659,0.17612,0.40566,-0.51262,0.20154,0.71156,0.43101,-0.38511,-0.18092,0.32923,0.25268,-0.61451,-1.8898,2.0892,0.63515,-1.0739,-0.35972,0.32903,1.3239,0.12518,-1.6603,-0.8951,-1.1757,0.32908,0.20159,1.4004,-0.89526,1.0942,-0.25759,-0.61457,0.099858,-1.2521,-0.10464,0.78807,1.1197,-0.38521,0.30355,0.73725,1.4005,-1.4309,-0.84422,-0.38498,-1.0991,0.15071,-0.12993,-0.15553,-0.69124,0.32912,1.3239,0.09943,0.89016,-0.61464,-0.69101,0.9669,0.35463,-0.30855,1.2219,-0.18105,-1.1758,-0.61461,-0.89519,0.074044,-0.38516,1.8341,-0.6656,-0.23198,-0.1554,-0.69124,0.71158,0.12497,0.76278,0.17612,-0.9973,1.0178,0.099473,0.048482,-0.84414,-0.43598,-0.33392,-0.66565,0.96669,0.73718,-0.20653,-0.053335,-1.1756,0.048487,0.1249,0.81362,0.15046,-0.6147,-0.027969,-0.002412,2.4718,-1.6604,-0.92073,0.7373,-1.1503,0.2782,-0.30856,0.022961,-0.079008,-0.41052,1.7067,0.048561,-0.43624,1.1197,-0.3597,-0.56366,0.71177,-1.0993,0.66079,-1.9154,-0.71666,1.4515,0.35462,1.0943,-0.35957,-0.20655,-0.76772,0.25259,-0.181,-0.81857,-0.053372,-0.66563,0.6607,1.2473,1.3493,-1.0484,-0.79327,0.099559,-0.35951,-1.2267,0.12519,0.71179,1.0688,-0.69119,-0.1045,0.023059,0.66072,-0.46166,1.6811,-0.15542,-0.20643,-1.6094,-1.5075,0.81361,2.6502,-0.99729,-1.0482,-0.56353,-0.20649,-0.00251,0.2526,0.60977,1.0178,-1.0483,-0.66565,0.30361,0.71161,1.2984,-0.027969,-0.46151,-0.538,0.023059,-0.079021,-1.3034,-0.20659,0.7117,1.8596,0.25267,-1.3798,-1.4818,0.099632,-0.30857,0.81371,0.53312,-0.58924,3.4921,-0.97165,-1.0991,-0.56354,-0.66567,-0.58923,0.32906,1.6044,1.2983,0.4056,-0.7422,-0.5636,-0.56355,-0.18087,-0.51245,-0.9207,0.22712,0.73717,0.25251,0.43107,0.15054,0.5076,0.30361,0.89051,-0.69112,-0.002485,-0.5382,-0.5127,0.91578,0.25265,-0.33403,-0.97172,0.99237,-0.84422,-0.23202,0.023121,-0.69105,-0.58913,1.7065,-0.30865,-0.41066,1.5789,0.43115,-0.48703,0.48228,0.023054,-0.15554,-0.15557,-0.58919,-0.41069,0.40563,0.27819,-0.51251,-0.81865,1.5025,-0.74217,0.023108,0.43114,0.27803,0.2525,-0.84431,0.6352,0.38018,-1.0227,-0.30852,0.023072,0.48219,-0.8186,-0.61465,0.83911,1.0942,-0.33402,0.91591,-1.3032,0.12502,-0.028029,0.43111,0.12497,-0.18106,-0.48716,0.32916,-2.0685,0.99245,0.22723,1.2984,-1.2269,0.25249,0.38005,0.38014,-0.28291,0.35483,-0.66569,0.30355,-0.64017,0.099626,-0.053464,0.40561,0.32899,0.30349,0.073984,-0.4616,-0.58901,-0.35945,1.3239,0.9413,-1.7114,-0.053446,-0.61469,0.40557,0.48214,-0.92074,0.53319,0.38014,-0.13002,0.25262,-0.30841,-2.1959,0.60987,-0.20664,1.6553,0.35451,0.048438,-0.56365,-1.0992,0.43131,0.71176,-1.0228,1.2474,-0.64021,0.43111,-0.76764,0.32918,0.074038,-0.64011,-0.76752,-0.46153,1.0177,0.73703,1.2472,-0.66574,-0.027969,-0.97163,0.32921,-1.1503,0.86481,0.30361,0.048561,-0.30851,-0.81867,-0.002436,0.53317,0.27806,-0.64018,2.5739,-1.2268,-0.53815,-0.002448,-0.13002,-0.86974,1.3749,0.099491,0.048494,0.22708,-0.61455,-1.0481,-1.0483,1.8086,1.1963,-0.15563,-0.2831,-0.38508,-0.35952,-0.4105,0.048573,0.53321,-0.28303,-0.51263,2.0891,-0.76773,0.43115,-0.23205,0.022961,-1.1757,-0.69104,0.53334,-0.51254,0.073928,0.45648,1.2472,0.17595,0.17604,1.528,-0.76759,-1.3543,-0.69108,0.38022,-1.0737,0.3036,-0.53819,0.073995,0.50766,0.074051,0.3547,0.89041,0.53317,0.22707,0.15051,-0.66573,0.22706,-0.41064,-0.69109,-0.76758,0.30366,0.38013,0.099534,0.4311,0.35456,0.68618,-0.30855,-0.58904,-0.9971,0.25259,0.83914,-0.41064,-0.3085,0.55881,-1.7879,-0.92077,1.6554,2.4462,0.45664,-2.2981,-1.1758,1.6555,-1.3288,-0.38504,0.73723,0.073989,1.1708,0.91582,-1.2267,-0.053335,-0.92063,0.35462,0.25252,-0.20662,1.4514,-0.46169,-1.2014,0.55875,-0.12985,-0.18096,-1.1246,-0.89511,0.99221,0.81363,-0.079093,-0.48719,0.25257,-0.30852,-0.20641,-0.487,0.68622,-0.33411,0.15056,0.96687,-0.84422,0.099521,2.4972,0.35464,-2.043,-0.56355,-0.74217,-0.38511,-0.13011,0.55865,-0.10453,0.27806,0.48209,1.477,-0.56342,-1.2265,0.2526,-0.25763,0.73714,0.27798,-0.35966,-0.35963,-0.33399,-1.4819,0.53317,1.477,1.0944,-0.71657,-1.3033,0.40561,-1.0228,0.20159,-0.25765,0.58413,0.074033,-0.38506,0.17609,0.40561,0.30361,-0.15545,0.45678,-1.0738,-0.41057,1.1198,-1.5075,0.89023,1.8341,0.2527,-1.5839,-1.0482,-0.74218,-0.35962,0.89016,-0.10461,1.2729,-0.51271,-0.18098,-0.7166,1.0179,1.0178,0.43117,-0.33399,-0.64012,-0.41062,-0.4871,-0.33406,0.32916,1.528,-1.3543,-0.51262,-0.61474,0.71166,1.1963,0.27811,-1.0737,-0.56353,-0.48705,-0.079014,0.53314,0.15053,2.0891,-1.3033,0.30366,-1.0737,-0.41054,-0.53815,1.0178,-0.079008,-0.30861,0.32907,0.099515,0.35455,-0.25762,-0.2065,-0.23196,-0.1553,-0.94608,0.40561,-0.079051,1.6555,-0.25754,0.3291,0.17598,0.12499,-0.58919,0.25254,-1.0738,-0.43607,0.099686,-0.46141,-1.0993,0.91573,0.15051,0.17607,1.7576,0.074044,-0.33409,0.022961,-0.053586,0.3291,-1.0992,-0.33399,1.7832,-0.41057,-0.81873,-1.431,1.1708,0.86471,-0.12999,-0.38504,1.7065,-0.64016,-0.23204,0.20167,-0.48705,-0.64012,-0.33398,-0.61456,-0.46165,1.2218,0.9412,-0.5892,2.2933,0.023145,-1.1503,0.43113,-0.35963,-0.38508,-0.7422,-1.1503,0.17617,-0.078947,-0.28309,0.55862,0.48214,1.1709,0.25265,-0.71665,-0.35953,0.94134,-0.76762,-0.46164,0.12497,1.2729,-0.30854,-1.4308,-0.18096,0.048482,0.40562,0.09957,1.2219,0.35458,-1.0484,0.30354,-0.15554,-0.64012,-0.41054,-0.10444,0.58427,0.22716,-0.12996,-0.51259,1.0943,-0.79323,0.15057,0.32915,-0.078972,0.40565,-1.5074,-0.46162,-0.20661,1.2728,1.0433,-0.61469,-0.41058,0.17609,0.86478,-0.10445,-0.48703,-0.487,0.12525,-0.12998,-0.71675,0.17597,0.5076,-0.53809,0.074142,0.45661,0.22703,0.17601,0.86474,-0.35959,1.0944,-0.64009,-0.64004,-1.0992,-0.48713,0.45664,-0.10449,1.2219,0.22719,-1.4309,-0.079124,0.40557,2.1657,-1.8645,0.9413,-1.0993,1.579,-0.66569,-1.1503,0.074185,-0.48704,0.6352,0.43115,0.22705,-0.58913,-0.35956,-0.002516,1.834,-0.66572,-0.86966,-0.61449,-0.027931,0.68616,0.40554,0.71165,0.94125,0.17606,-1.5584,-0.43601,0.074111,0.2017,-1.0482,-0.3849,-0.33404,-0.18112,3.6705,0.68618,0.32911,-0.69123,-2.8083,-0.56367,-1.0738,0.35468,1.1709,0.50774,-0.35951,-0.79317,1.3749,0.81379,0.40566,-1.0228,-0.25765,0.32908,-0.48706,0.27819,-1.2776,-0.41053,0.68617,0.35452,0.40552,0.30349,0.83923,-0.18095,-0.33399,-0.12993,0.15065,-1.3289
